2301
2325
2327
2334
2336
2355
2382
2403
2405
2389
2362
2331
2310
2303
2299
2288
2280
2297
2313
2312
2299
2286
2285
2284
2280
2275
2284
2299
2287
2247
2221
2209
2227
2288
2346
2375
2380
2359
2334
2311
2283
2271
2249
2198
2178
2254
2325
2355
2359
2350
2336
2321
2308
2295
2313
2314
2303
2292
2275
2262
2264
2271
2254
2216
2210
2235
2249
2275
2314
2348
2356
2337
2332
2340
2321
2306
2305
2306
2292
2265
2234
2234
2274
2315
2330
2321
2276
2215
2186
2213
2286
2353
2388
2392
2369
2339
2317
2312
2313
2323
2323
2305
2288
2287
2293
2286
2295
2320
2321
2326
2336
2337
2313
2268
2257
2285
2302
2308
2310
2295
2296
2321
2343
2349
2336
2313
2297
2267
2231
2223
2261
2315
2345
2337
2306
2283
2318
2366
2389
2387
2368
2332
2310
2306
2299
2287
2302
2341
2368
2375
2365
2347
2327
2312
2300
2289
2277
2274
2279
2297
2290
2253
2216
2209
2215
2257
2313
2355
2366
2362
2362
2372
2374
2368
2354
2357
2360
2356
2351
2335
2316
2303
2292
2279
2277
2302
2320
2317
2281
2253
2241
2273
2300
2326
2337
2287
2188
2171
2245
2325
2367
2362
2337
2335
2371
2388
2372
2353
2336
2307
2303
2309
2295
2265
2260
2291
2325
2326
2306
2282
2289
2279
2265
2271
2294
2323
2332
2321
2317
2319
2313
2296
2296
2289
2235
2203
2250
2319
2351
2363
2354
2340
2321
2316
2298
2274
2268
2279
2301
2316
2321
2318
2300
2272
2238
2194
2172
2223
2280
2330
2371
2376
2338
2278
2222
2240
2309
2356
2371
2354
2333
2298
2279
2287
2306
2321
2327
2329
2318
2314
2301
2285
2269
2254
2248
2253
2262
2257
2236
2238
2278
2296
2276
2252
2252
2307
2346
2379
2375
2354
2306
2239
2215
2237
2292
2361
2395
2393
2363
2322
2300
2283
2281
2293
2297
2317
2349
2362
2350
2332
2301
2292
2296
2296
2287
2273
2274
2277
2277
2252
2260
2284
2315
2327
2335
2307
2261
2261
2291
2324
2344
2338
2338
2359
2385
2391
2373
2343
2295
2245
2229
2265
2302
2323
2342
2337
2331
2306
2279
2263
2257
2255
2274
2297
2306
2310
2280
2213
2199
2243
2272
2283
2320
2354
2360
2330
2315
2306
2318
2333
2337
2334
2331
2304
2297
2301
2295
2292
2287
2277
2284
2277
2262
2270
2283
2285
2258
2221
2206
2252
2297
2313
2326
2332
2332
2320
2301
2289
2284
2287
2277
2276
2261
2207
2142
2133
2212
2297
2336
2322
2309
2319
2324
2313
2284
2266
2260
2278
2288
2292
2283
2265
2254
2245
2238
2236
2248
2242
2234
2241
2282
2293
2282
2265
2239
2230
2237
2245
2235
2270
2323
2336
2332
2321
2312
2304
2284
2268
2259
2272
2276
2271
2262
2264
2276
2293
2298
2293
2250
2186
2129
2154
2240
2294
2332
2359
2353
2356
2346
2338
2326
2303
2294
2284
2277
2280
2282
2282
2268
2245
2223
2219
2233
2244
2216
2140
2121
2196
2287
2344
2351
2337
2320
2302
2289
2283
2263
2250
2257
2260
2239
2168
2022
1875
1830
1893
2044
2220
2359
2465
2538
2548
2514
2434
2298
2088
1852
1690
1690
1819
2013
2172
2240
2269
2285
2278
2195
1965
1651
1329
1019
816
857
1035
1226
1246
1230
1245
1280
1387
1483
1624
1757
1875
1913
1819
1356
670
0
1
45
576
1338
2135
2758
2987
3039
2952
2838
2632
2301
1878
1519
1415
1511
1716
1921
1983
1976
2165
2379
2427
2320
2223
2094
1860
1507
1429
1560
1704
1918
2009
2223
2404
2497
2448
2209
1884
1592
1466
1542
1838
2218
2483
2465
2220
2020
1753
1534
1463
1521
1705
2139
2615
2842
2765
2408
1769
1076
801
1022
1523
1971
2390
2705
2849
2746
2382
1732
892
593
1040
1637
2290
2442
2155
1868
1724
1751
1982
2274
2402
2166
1999
2306
2559
2444
2081
1697
1478
1509
1525
1581
1609
1597
1973
2431
2599
2228
1764
1753
1867
1931
2055
2068
1907
1562
1654
2241
2446
2135
1947
2395
2639
2632
2336
1838
1691
1579
1803
2421
2837
2781
2424
2033
1841
2009
2275
2368
2118
2011
1959
2042
2176
2253
2021
1778
1758
2008
2485
2857
2920
2777
2600
2366
2064
1978
2156
2189
2160
2332
2401
2237
2094
2092
2290
2463
2453
2243
1915
2116
2456
2587
2461
2177
1938
1794
1815
2090
2441
2502
2127
1910
2079
2326
2371
2035
2099
2460
2669
2753
2584
2143
2014
2329
2601
2561
2373
2184
1949
2055
2217
2447
2679
2732
2667
2476
2158
2036
2093
2152
2159
2114
2201
2345
2470
2473
2334
1973
1761
1677
1857
2256
2569
2744
2698
2559
2244
2048
2199
2461
2739
2643
2245
2181
2325
2603
2660
2374
2037
2227
2495
2559
2532
2595
2584
2378
1920
1509
1570
1883
2407
2912
3173
2998
2498
2107
1857
2182
2680
2820
2717
2638
2469
2412
2374
2377
2332
2146
1769
1743
2066
2657
3080
3075
2581
2119
1996
2156
2364
2475
2442
2241
2278
2463
2640
2677
2539
2523
2546
2519
2430
2388
2177
2124
2332
2555
2726
2696
2580
2445
2415
2121
1701
1848
2160
2521
2775
2526
1962
1961
2502
2958
3136
2852
2520
2597
2767
2792
2547
2435
2538
2578
2483
2317
2176
2061
1848
1878
2359
2798
2875
2776
2745
2555
2349
2177
2176
2414
2488
2372
2318
2256
2445
2680
2602
2507
2661
2890
3057
2805
2054
1264
1584
2480
3177
3449
3345
2932
2395
2061
2167
2404
2491
2446
2523
2540
2373
2267
2319
2439
2347
2268
2536
2728
2821
2674
2330
2136
1930
2009
2116
2262
2580
2640
2377
2297
2407
2621
2765
2795
2745
2746
2711
2586
2415
2224
2199
2367
2360
1848
1542
1958
2544
2941
3135
3009
2839
2619
2441
2428
2635
2712
2676
2560
2247
1867
1729
1820
2331
2881
3074
2857
2644
2452
2154
2027
2294
2560
2570
2770
2951
2876
2784
2510
2154
2041
2256
2519
2772
2872
2797
2635
2646
2800
2671
2123
1588
1830
2408
2869
2992
2934
2769
2594
2566
2607
2536
2427
2413
2404
2621
2762
2650
2409
2329
2499
2680
2769
2741
2632
2673
2756
2693
2382
1962
1999
2096
2112
2250
2773
2981
2870
2743
2508
2274
2324
2500
2629
2726
2761
2680
2294
2066
1991
1920
1754
2127
2801
3247
3433
3444
3178
2893
2702
2659
2452
2295
2285
2256
2181
2072
2184
2503
2815
3054
3188
3191
3000
2641
2319
2109
1849
1623
1798
2099
2410
2772
3055
3038
2733
2451
2501
2606
2552
2630
2751
2754
2557
2271
1858
1677
1947
2458
2885
3203
3296
3134
2839
2665
2556
2401
2182
2098
2155
2304
2403
2328
2412
2597
2673
2529
2297
2131
2223
2555
2753
2902
2890
2792
2674
2680
2751
2613
2306
2119
2338
2652
2804
2581
2173
1728
1880
2274
2655
2868
2732
2305
2070
2254
2596
2876
2913
2620
2243
1966
2096
2517
2871
2974
2743
2458
2505
2332
1687
1225
1312
2017
2821
3178
3393
3308
2919
2616
2511
2451
2129
1851
1849
1768
1686
2188
2828
3083
2886
2711
2746
2712
2448
2176
2260
2481
2588
2411
2232
2034
2117
2400
2748
2924
3022
2968
2877
2737
2490
2123
1676
1417
1719
2313
2685
2879
3082
3206
3156
2862
2279
1793
1738
2218
2634
2771
2760
2587
2422
2230
1911
1491
1576
2238
2838
2961
2361
1736
1895
2505
3100
3400
3350
2985
2360
1829
1586
1787
2267
2807
3028
2869
2621
2519
2543
2470
2312
2152
2084
2199
2391
2572
2600
2145
1856
2098
2428
2810
2989
2921
2626
2122
1764
1997
2450
2671
2397
1868
1691
1623
1913
2774
3376
3382
3130
3018
2861
2534
2079
1901
1887
1862
2138
2515
2740
2679
2268
1883
2027
2405
2662
2664
2701
2621
2291
1959
2032
2077
2416
2870
3013
2781
2308
1828
1743
1854
1814
1834
2452
3112
3241
3047
2694
2416
2366
2597
2863
2910
2580
1905
1389
1442
2004
2373
2681
2677
2355
2195
2440
2699
2877
2849
2836
2827
2566
2033
1492
1739
2193
2589
2543
2317
2346
2329
2391
2488
2592
2845
2736
2482
2294
2379
2632
2831
2703
2489
2251
2162
2238
2225
2147
2309
2499
2584
2427
2078
1590
1386
1815
2356
2766
3121
3253
2985
2668
2261
1877
1819
1943
2335
2859
3241
3430
3375
2783
1994
1397
1116
1747
2567
3052
3260
3156
2611
1676
1480
1978
2475
2554
2334
2118
2432
2997
1684
2205
2746
2936
2395
1929
1976
2345
2795
2610
2570
2775
2723
2399
1817
1330
1859
2672
3217
3255
2846
2302
2027
2056
2409
2641
2682
2677
2639
2532
2405
2245
1852
1892
2042
1896
1861
2272
2841
3261
3244
2797
2448
2280
2120
1872
1975
2226
2401
2584
2395
2081
2218
2385
2532
2609
2655
2733
2549
2164
1789
1980
2530
2879
3130
3133
2857
2571
2340
2143
2223
2591
2716
2426
2140
1773
1578
1632
1630
1988
2581
3166
3348
3303
3054
2577
2118
1629
1370
1599
1931
2202
2488
2609
2717
2899
2803
2527
2440
2551
2687
2497
2436
2626
2611
2495
2294
2243
2364
2341
2016
1532
1794
2365
2612
2636
2686
2708
2732
2772
2721
2556
2423
2097
1579
1648
2384
3062
3141
2645
2075
1984
2083
2219
2113
2171
2431
2566
2784
3061
3068
2643
2185
2216
2176
1805
1409
1878
2542
2945
3020
2967
2756
2530
2545
2557
2195
1739
1339
1555
2402
3053
3199
3075
2744
2261
1929
1987
2229
2666
2879
2459
2120
2184
1921
1472
1712
2337
2970
3146
2870
2684
2571
2379
2064
1612
1432
1632
2232
2814
3116
3162
3348
3316
3065
2851
2691
2346
2046
1874
1895
1848
1976
2169
2760
2975
2516
2399
2623
2710
2397
1906
1497
1580
2065
2524
2854
2990
2993
2715
2313
2023
2140
2404
2613
2732
2636
2246
2323
2761
2651
2070
1507
1583
2448
3260
3632
3605
3195
2532
1891
1936
2224
2513
2617
2695
2761
2704
2438
2095
1856
1856
1955
1866
1814
2244
2350
2331
2781
3255
3272
2663
2031
1959
2181
2620
3023
3083
2567
2054
2083
2425
2606
2609
2519
2659
2809
2734
2535
2418
2533
2601
2275
1974
1770
1618
1934
2142
2250
2357
2563
2695
2808
2981
2768
1905
1388
1684
2577
3272
3609
3707
3487
3295
2951
2436
2099
2064
2219
2443
2585
2653
2725
2646
2406
2053
1625
1594
1966
2267
2423
2563
2179
1175
894
1637
2878
3919
4095
3938
3341
2659
2107
1778
1899
2068
2216
2288
2130
1979
2368
2725
2748
2553
2345
2381
2317
2189
2357
2634
2783
2497
1969
1733
2025
2383
2708
2813
2919
2689
2333
2075
1600
1325
1772
2517
3138
3572
3427
2887
2548
2368
2325
2266
2085
1804
1590
1986
2424
2651
2562
2147
2267
2891
3347
3367
3125
2663
2048
1874
1975
1791
1646
2040
2492
2864
2998
2969
2739
2372
2173
1954
1958
2058
2485
2505
2218
2322
2540
2611
2524
2321
2052
1604
1498
2241
2976
3407
3389
3155
2819
2522
2246
2296
2452
2639
2527
2276
1894
1720
1849
1796
1441
1517
2279
2936
2948
2310
1647
1624
2229
2892
3101
2942
2965
3025
2887
2280
1586
1816
2716
3287
3362
2995
2601
2222
1923
1518
1263
1592
2299
2894
3091
2886
2613
2484
2487
2285
2039
2092
2353
2505
2468
2414
2295
2194
2101
2194
2378
2456
2096
1745
1697
1991
2881
3361
3502
3390
2942
2290
1789
1625
1973
2223
2372
2497
2546
2660
2519
2307
2441
2463
2397
2541
2678
2885
2909
2649
2501
2384
2141
1612
1098
1278
1649
2057
2157
2200
2240
2250
2543
2922
3180
3195
2929
2481
1835
1926
2351
2781
2993
3010
2966
2830
2524
2143
1737
1628
1989
2429
2478
2181
1578
1759
2483
2980
2940
2430
2083
2171
2371
2237
1696
1389
1896
2737
3459
3757
3662
3177
2766
2661
2583
2658
2671
2468
1996
1606
1652
1750
1812
2052
2159
2218
2329
2487
2509
2483
2257
1799
1740
2020
2307
2415
2329
1883
985
810
1478
2519
3471
3815
3274
2220
1741
2222
2786
3176
3231
3035
2638
2417
2479
2549
2462
2199
1875
1720
1754
1644
1581
1928
2382
2503
2237
2060
1955
1876
1965
2282
2478
2169
1600
1316
1692
2239
2891
3360
3347
2896
2344
2096
2319
2786
2907
2925
2832
2372
1666
1515
1898
2258
2341
1987
1576
1447
1517
1705
2178
2611
2740
2525
1997
1512
1449
1640
1867
2301
2796
2825
2548
2344
2490
2513
2411
2254
1974
1676
1695
1860
2048
2098
2216
2440
2647
2486
1931
1808
2095
2529
2938
3222
3169
2977
2702
2388
2167
1839
1521
1374
1319
1695
2049
1951
1607
1488
1734
2089
2498
2772
2697
2579
2698
2700
2599
2377
1917
1678
1690
1937
2129
2305
2531
2492
1988
1578
1557
2015
2374
2357
2142
1690
1346
1440
2029
2443
2800
2974
2832
2638
2337
2078
1851
1736
1785
2084
2392
2584
2417
2128
2080
2231
2517
2564
2348
1960
1585
1491
1547
1589
1642
1850
2205
2402
2417
2221
2106
2145
2136
1760
1348
1227
1539
2321
2738
2813
2809
2821
2903
2770
2476
2034
2022
2367
2617
2645
2384
1794
1324
1304
1427
1410
1305
1610
2092
2553
2895
2976
2721
2261
1653
1168
965
1014
1196
1719
2557
3208
3544
3406
2930
2351
1970
1711
1855
2182
2430
2538
2306
1866
1517
1383
1637
1969
2133
2131
1996
2074
2239
2268
1963
1600
1612
1861
2320
2726
2918
2670
2107
1717
1901
2460
2854
3081
2982
2532
1946
1780
1887
2105
2259
2330
2139
1887
1697
1754
1839
1563
1288
1324
1718
2443
2847
2802
2662
2561
2215
1976
2137
2354
2479
2516
2466
2319
2153
2018
2008
2123
2314
2362
2237
2130
1887
1779
2206
2627
2648
2294
1975
1689
1612
1965
2342
2477
2374
2061
1758
1962
2423
2592
2436
2128
1982
2134
2460
2714
2753
2611
2207
1963
2119
2467
2763
2843
2637
2170
1584
1564
1817
2057
2306
2599
2742
2444
1761
1002
579
673
1739
2897
3630
3815
3544
3056
2518
2137
1715
1497
1554
1782
1933
2341
2854
3065
2949
2703
2363
1803
1506
1401
1347
1802
2523
3035
3320
3252
2932
2486
1868
1509
1510
1733
2102
2437
2271
1816
1884
2273
2588
2774
2628
2186
1920
1919
2347
2918
3261
3260
3131
2940
2516
2006
1703
1699
1870
2144
2434
2545
2421
2058
1642
1411
1930
2452
2625
2451
2103
2022
1833
1824
2006
1884
1922
2447
3132
3539
3543
3104
2376
1849
2006
2392
2615
2599
2327
1963
2067
2508
2783
2859
2600
1962
1120
966
1621
2383
2792
2842
2818
2563
1927
1452
1529
1997
2434
2588
2616
2741
2829
2834
2741
2712
2629
2324
1937
2120
2712
2949
2605
2170
2017
1971
2177
2465
2509
2140
1622
1545
1495
1664
2436
3011
3018
2662
2172
1908
2179
2371
2149
2360
2654
2779
2367
2018
2168
2511
2765
2920
2736
2333
1968
2167
2631
3036
3134
2893
2791
2642
2334
2009
1987
1898
1724
1870
2240
2391
2233
1904
2137
2598
2841
2772
2357
1845
1796
1829
1854
2118
2439
2516
2593
2363
1926
1917
2440
3114
3311
2954
2723
2870
2870
2743
2639
2585
2457
2207
1874
1355
1656
2374
2921
3020
2554
1969
1881
2288
2381
2367
2405
2404
2270
1882
1939
2243
2292
2055
2022
2156
2451
2729
2991
3086
3061
2723
2318
2159
2243
2338
2193
1682
1573
1909
2573
3068
3239
3082
2795
2377
1988
2140
2189
2114
2191
2089
1833
1993
2266
2326
2143
2006
1617
1454
2084
3003
3638
3791
3451
2839
2366
1872
1150
872
1622
2543
3110
3313
3281
2969
2718
2350
2169
2108
2157
2369
2526
2411
1998
1715
1998
2459
2797
2853
2875
2800
2460
2112
2098
2115
2086
2232
2419
2324
2159
2176
2404
2505
2659
2755
2658
2473
2393
2517
2552
2614
2559
2399
2389
2466
2335
2223
1978
1803
1825
1872
1735
1863
2443
2959
3170
3112
2872
2556
2445
2522
2611
2586
2500
2462
2577
2706
2666
2244
1574
1176
1620
2516
3397
3652
3190
2335
1659
1524
1765
2232
2761
3021
2899
2455
2218
2129
1760
1350
1662
2356
2850
3076
3034
2779
2138
1786
1928
2347
2616
2963
3311
3457
3057
2056
972
824
1693
2710
3371
3584
3448
3070
2582
2173
1744
1263
1146
1818
2724
3262
3417
3302
3059
2784
2330
1556
780
988
1803
2796
3485
3572
3072
2649
2411
2347
2007
1641
1802
2447
3044
3571
3680
3492
3063
2629
2489
2128
1778
1639
1682
1851
2038
2358
2782
2964
2897
2659
2359
2138
1954
1937
2071
2311
2226
1829
1566
1542
1940
2649
3417
3836
3813
3440
2943
2621
2423
2087
1706
1448
1526
2025
2550
2851
2806
2705
2511
2603
2771
2746
2463
2165
1815
1685
1891
2352
2626
2615
2254
1867
1784
1842
2034
2572
3052
3345
3275
2757
2005
1916
2288
2773
2992
2700
2189
1989
2061
2261
2568
2731
2545
2280
2339
2611
2716
2556
2203
1967
2077
2333
2698
3120
3210
2692
1739
1375
1614
2279
3040
3412
3263
2594
1739
1184
1264
2219
3001
3260
3109
2733
2616
2751
2709
2311
2161
2418
2711
2817
2866
2830
2749
2781
2759
2544
2228
1889
1721
1629
1586
1763
2095
2425
2612
2723
2750
2640
2618
2621
2526
2401
2302
2363
2345
2247
2012
1917
1806
2111
2511
2844
3104
3109
2356
1221
845
1420
2511
3279
3402
2992
2331
1945
2009
2346
2786
3120
3286
3123
2831
2620
2537
2391
2244
2223
2415
2635
2582
2223
1862
1727
1945
1981
1778
2051
2737
3005
2801
2519
2591
2797
2990
2958
2519
1797
1194
1511
2231
2860
3064
2886
2789
2830
2468
2058
2043
2268
2583
2912
3041
2818
2437
2035
1885
2110
2314
2200
1917
1920
2145
2296
2230
1983
1722
2068
2567
2920
3042
2976
2445
1949
2183
2733
3082
3024
2666
2447
2639
2771
2826
2854
2830
2752
2544
2321
2011
1764
1589
1642
1740
2017
2451
2735
2551
2291
2318
2244
2100
1468
960
1617
2839
3754
4027
3778
3389
2917
2625
2419
2339
2264
1974
1522
1608
2104
2461
2964
3155
2978
2512
2170
1901
1586
1668
2278
2951
3376
3426
3198
2772
2175
1638
1682
2086
2275
2072
2003
2126
2155
1904
1550
1242
1560
2605
3411
3684
3701
3310
2492
1946
2113
2464
2784
3064
2998
2414
1921
2063
2388
2608
2415
2009
1588
1837
2340
2710
2938
3018
2928
2803
2598
2412
2254
2004
1526
1064
1344
2266
2948
3054
2679
2440
2236
2175
2336
2445
2398
2356
2192
2168
2431
2617
2791
2677
2275
2200
2518
2831
2849
2544
2157
2155
2371
2526
2430
2116
2053
2277
2557
2588
2514
2592
2690
2601
2460
2318
2209
2079
1878
1748
1846
1850
1733
1916
2111
2560
3006
3158
3157
3013
2583
2168
1937
1902
1855
1463
1576
2155
2882
3274
3385
3285
3008
2607
2062
1524
1525
2091
2575
2783
2746
2559
2291
1962
1757
1639
1657
2141
2678
2958
3105
3092
2893
2424
1985
1738
1797
1967
2105
2133
2164
2249
2294
2265
2239
2241
2191
2158
2383
2680
2818
2771
2571
2316
2130
2079
2143
2343
2506
2497
2412
2368
2426
2469
2286
2142
2050
1989
2003
2137
2288
2406
2295
2106
1964
2105
2377
2482
2457
2456
2520
2583
2393
2197
2126
2154
2247
2281
2250
2228
2275
2352
2409
2451
2521
2588
2614
2562
2464
2345
2261
2238
2268
2250
2244
2308
2289
2230
2248
2271
2292
2331
2350
2311
2272
2289
2305
2281
2256
2240
2212
2190
2170
2128
2092
2065
2096
2119
2117
2102
2092
2104
2099
2054
2046
2089
2109
2118
2119
2109
2062
1967
1824
1711
1775
1949
2088
2128
2131
2075
1996
2000
2052
2105
2145
2161
2181
2168
2180
2172
2138
2086
2018
1958
1951
2020
2092
2143
2157
2135
2106
2048
1959
1865
1820
1855
1964
2085
2140
2113
2002
1889
1834
1902
2027
2106
2184
2205
2139
2107
2083
2060
2063
2142
2211
2234
2205
2171
2127
2073
2005
1957
1963
1985
2017
2045
2088
2118
2129
2133
2123
2100
2092
2080
2046
1989
1931
1926
1991
2062
2128
2174
2210
2203
2161
2115
2074
2050
1983
1889
1853
1914
2025
2128
2159
2157
2201
2269
2286
2258
2253
2262
2272
2264
2232
2189
2160
2166
2186
2198
2184
2167
2145
2153
2148
2132
2103
2129
2198
2289
2358
2337
2254
2181
2157
2200
2248
2275
2314
2312
2276
2255
2288
2396
2576
2839
3148
3483
3628
3591
3408
3140
2870
2766
2792
2786
2699
2602
2569
2583
2595
2585
2547
2487
2428
2372
2339
2318
2298
2283
2272
2258
2240
2221
2186
2154
2145
2174
2220
2248
2250
2229
2226
2229
2208
2181
2171
2169
2156
2141
2131
2157
2179
2172
2152
2153
2188
2235
2265
2272
2263
2249
2226
2215
2208
2202
2190
2177
2173
2179
2183
2180
2188
2213
2226
2199
2117
2033
2083
2178
2235
2260
2273
2276
2257
2239
2247
2259
2244
2202
2201
2251
2285
2299
2297
2293
2284
2270
2257
2242
2230
2212
2190
2169
2152
2154
2168
2179
2187
2163
2147
2164
2181
2201
2235
2294
2338
2349
2331
2312
2281
2268
2279
2296
2294
2288
2297
2308
2305
2279
2262
2266
2302
2338
2365
2389
2404
2397
2379
2354
2332
2315
2304
2292
2295
2293
2305
2313
2317
2325
2331
2334
2336
2337
2341
2348
2341
2324
2302
2280
2275
2297
2328
2351
2349
2317
2302
2286
2296
2330
2348
2364
2372
2391
2390
2399
2399
2410
2408
2394
2365
2339
2328
2353
2398
2419
2424
2426
2422
2406
2385
2353
2311
2284
2304
2354
2393
2407
2429
2441
2423
2422
2424
2419
2418
2409
2408
2405
2397
2403
2412
2411
2403
2393
2383
2378
2372
2376
2389
2404
2400
2382
2353
2348
2363
2375
2383
2385
2356
2300
2306
2371
2438
2468
2462
2430
2384
2345
2341
2383
2435
2450
2441
2425
2401
2381
2372
2376
2390
2410
2422
2417
2415
2441
2455
2450
2421
2405
2393
2369
2338
2345
2381
2413
2454
2467
2460
2466
2470
2452
2435
2430
2415
2401
2391
2382
2385
2397
2412
2423
2426
2427
2442
2449
2455
2450
2436
2418
2404
2400
2391
2379
2350
2323
2327
2356
2374
2347
2330
2333
2378
2478
2531
2553
2557
2529
2478
2434
2405
2411
2442
2474
2477
2458
2453
2443
2438
2436
2430
2442
2454
2455
2449
2445
2435
2415
2393
2393
2422
2458
2476
2477
2460
2446
2444
2450
2456
2460
2463
2462
2451
2424
2426
2444
2456
2454
2439
2437
2435
2437
2414
2359
2359
2436
2494
2536
2542
2521
2501
2488
2473
2459
2446
2446
2447
2432
2429
2436
2437
2443
2459
2469
2467
2464
2449
2424
2388
2372
2400
2435
2464
2491
2503
2498
2482
2469
2441
2416
2416
2418
2451
2499
2521
2521
2509
2489
2465
2456
2461
2468
2474
2474
2469
2456
2445
2445
2447
2459
2468
2464
2449
2412
2379
2405
2475
2528
2550
2547
2529
2509
2480
2464
2460
2471
2480
2484
2485
2485
2492
2491
2492
2493
2483
2483
2497
2508
2511
2499
2476
2464
2484
2483
2428
2357
2326
2432
2541
2597
2612
2597
2568
2538
2513
2497
2487
2488
2508
2521
2514
2489
2460
2476
2493
2494
2479
2495
2512
2536
2547
2545
2533
2521
2508
2479
2450
2446
2490
2531
2531
2511
2522
2543
2541
2534
2521
2488
2452
2456
2503
2551
2583
2587
2565
2534
2535
2539
2540
2538
2528
2524
2517
2506
2497
2502
2499
2493
2515
2519
2515
2505
2511
2536
2571
2587
2585
2570
2555
2548
2549
2544
2526
2483
2462
2489
2535
2566
2567
2540
2518
2541
2569
2568
2556
2556
2560
2554
2545
2541
2516
2510
2527
2535
2511
2456
2444
2501
2556
2585
2583
2556
2528
2497
2479
2488
2516
2535
2540
2551
2540
2514
2484
2467
2474
2493
2497
2487
2499
2512
2505
2499
2492
2505
2528
2539
2531
2510
2489
2482
2480
2490
2499
2498
2496
2502
2506
2502
2482
2459
2435
2391
2381
2461
2524
2535
2511
2476
2474
2509
2542
2553
2548
2538
2523
2510
2502
2497
2489
2483
2483
2481
2475
2468
2478
2476
2468
2475
2471
2464
2463
2487
2507
2513
2512
2494
2480
2469
2450
2412
2386
2399
2427
2494
2527
2543
2557
2553
2547
2540
2513
2496
2494
2507
2520
2503
2478
2460
2465
2494
2511
2516
2508
2502
2497
2489
2478
2481
2483
2482
2483
2476
2445
2415
2425
2468
2499
2505
2506
2510
2504
2494
2473
2432
2416
2441
2453
2463
2481
2488
2483
2493
2506
2503
2501
2498
2476
2434
2420
2442
2447
2395
2314
2334
2466
2566
2604
2597
2555
2503
2473
2492
2512
2517
2519
2506
2487
2469
2461
2452
2448
2447
2443
2430
2415
2400
2409
2440
2449
2448
2467
2482
2486
2484
2442
2383
2397
2450
2485
2507
2519
2511
2476
2435
2404
2416
2444
2467
2483
2484
2478
2471
2454
2425
2400
2401
2422
2429
2440
2456
2473
2469
2449
2425
2392
2370
2403
2465
2505
2506
2498
2469
2451
2428
2413
2451
2475
2486
2479
2461
2439
2415
2390
2367
2376
2401
2418
2424
2415
2407
2388
2381
2384
2388
2390
2389
2388
2380
2358
2318
2292
2302
2380
2436
2474
2491
2466
2422
2413
2411
2403
2407
2418
2423
2418
2405
2390
2372
2359
2341
2332
2353
2381
2396
2373
2329
2307
2316
2346
2391
2420
2417
2407
2415
2408
2396
2384
2372
2359
2371
2402
2426
2426
2413
2386
2354
2331
2327
2325
2345
2376
2383
2365
2349
2333
2345
2349
2336
2363
2391
2389
2367
2370
2369
2378
2386
2405
2413
2396
2345
2317
2354
2385
2394
2400
2409
2399
2382
2346
2318
2351
2378
2390
2383
2373
2368
2364
2364
2357
2365
2353
2336
2333
2362
2391
2399
2390
2370
2333
2299
2323
2369
2409
2423
2420
2406
2383
2357
2335
2293
2252
2256
2314
2357
2372
2364
2336
2344
2365
2384
2387
2386
2384
2371
2356
2343
2366
2375
2375
2371
2370
2362
2341
2322
2283
2251
2258
2286
2314
2353
2369
2371
2359
2349
2341
2331
2325
2318
2308
2306
2309
2285
2259
2272
2294
2309
2310
2302
2299
2297
2297
2293
2280
2261
2259
2268
2273
2251
2211
2206
2240
2271
2306
2320
2327
2348
2337
2316
2291
2281
2288
2273
2260
2275
2287
2292
2285
2272
2264
2261
2249
2246
2245
2238
2235
2237
2239
2230
2217
2218
2229
2237
2235
2223
2224
2186
2110
2108
2204
2291
2324
2312
2314
2306
2292
2257
2239
2212
2168
2178
2237
2294
2314
2306
2284
2258
2239
2233
2231
2227
2232
2246
2241
2224
2196
2178
2185
2207
2225
2234
2252
2256
2244
2224
2193
2144
2115
2155
2213
2268
2293
2292
2294
2284
2276
2266
2271
2277
2250
2181
2162
2218
2260
2279
2278
2261
2252
2244
2235
2210
2192
2179
2184
2206
2231
2239
2243
2244
2230
2211
2181
2157
2180
2227
2259
2262
2237
2207
2211
2227
2240
2253
2259
2253
2242
2237
2223
2214
2212
2186
2190
2220
2239
2262
2278
2273
2247
2209
2193
2191
2181
2241
2296
2312
2294
2270
2258
2257
2259
2256
2249
2237
2242
2236
2217
2209
2212
2208
2201
2185
2191
2217
2232
2227
2216
2208
2213
2217
2211
2194
2203
2227
2260
2269
2267
2268
2259
2248
2238
2233
2225
2213
2185
2164
2173
2192
2211
2218
2215
2194
2142
2070
2087
2149
2214
2268
2285
2278
2261
2244
2222
2204
2204
2186
2162
2168
2201
2221
2227
2237
2249
2243
2231
2221
2213
2206
2169
2120
2094
2131
2175
2209
2236
2250
2238
2213
2207
2206
2209
2213
2214
2217
2218
2205
2195
2195
2182
2140
2109
2155
2206
2231
2222
2201
2181
2205
2210
2208
2203
2205
2210
2192
2194
2196
2190
2192
2206
2223
2237
2240
2230
2209
2197
2187
2178
2166
2140
2099
2061
2067
2161
2265
2322
2344
2325
2292
2266
2250
2249
2239
2236
2227
2191
2170
2169
2218
2264
2293
2300
2283
2271
2252
2225
2220
2226
2240
2232
2208
2231
2267
2280
2259
2227
2215
2217
2231
2261
2289
2304
2300
2284
2272
2230
2150
2164
2255
2326
2344
2344
2328
2315
2311
2300
2296
2302
2290
2283
2279
2269
2260
2245
2246
2272
2296
2305
2298
2276
2247
2225
2246
2275
2292
2310
2321
2311
2314
2332
2341
2336
2328
2316
2281
2234
2240
2258
2256
2274
2302
2333
2346
2347
2346
2343
2347
2361
2361
2349
2336
2334
2320
2305
2320
2342
2347
2346
2338
2336
2334
2332
2323
2308
2295
2300
2304
2308
2319
2329
2336
2332
2311
2257
2173
2157
2245
2346
2391
2375
2357
2390
2407
2412
2391
2385
2370
2346
2338
2350
2366
2381
2386
2384
2379
2369
2350
2320
2300
2307
2339
2374
2394
2394
2381
2361
2318
2267
2257
2275
2318
2366
2406
2429
2433
2419
2391
2366
2350
2329
2320
2314
2350
2382
2411
2421
2401
2383
2386
2378
2347
2327
2327
2339
2353
2381
2424
2448
2449
2429
2409
2397
2384
2395
2399
2393
2381
2381
2371
2344
2332
2372
2415
2447
2451
2429
2417
2372
2332
2352
2390
2416
2434
2438
2401
2367
2403
2449
2460
2442
2424
2420
2418
2420
2427
2451
2476
2481
2475
2472
2468
2459
2440
2412
2401
2409
2422
2440
2450
2442
2415
2397
2391
2404
2418
2433
2426
2428
2447
2455
2440
2455
2476
2460
2386
2342
2383
2470
2531
2553
2546
2534
2520
2498
2477
2463
2463
2473
2475
2473
2468
2457
2453
2467
2472
2478
2490
2481
2458
2444
2435
2475
2518
2538
2521
2446
2374
2379
2488
2573
2612
2613
2582
2544
2525
2520
2507
2497
2496
2498
2496
2492
2500
2510
2510
2497
2481
2458
2443
2440
2445
2473
2521
2542
2547
2533
2508
2491
2482
2506
2523
2517
2452
2383
2406
2489
2550
2585
2591
2584
2570
2545
2518
2492
2487
2498
2516
2544
2559
2554
2546
2531
2502
2473
2461
2481
2512
2529
2526
2514
2504
2490
2493
2491
2493
2488
2477
2459
2416
2394
2453
2527
2574
2586
2574
2518
2435
2421
2491
2553
2587
2590
2573
2543
2529
2530
2522
2504
2483
2464
2485
2523
2531
2514
2496
2486
2473
2464
2477
2477
2469
2492
2509
2522
2532
2539
2549
2562
2567
2544
2509
2504
2499
2464
2421
2441
2489
2529
2543
2542
2529
2513
2511
2509
2500
2488
2476
2467
2462
2464
2468
2479
2480
2443
2376
2376
2436
2465
2482
2532
2561
2558
2536
2513
2507
2497
2486
2499
2525
2533
2527
2524
2515
2496
2484
2480
2485
2497
2507
2508
2499
2483
2467
2462
2467
2476
2478
2479
2473
2467
2458
2426
2377
2381
2440
2525
2574
2572
2542
2513
2498
2484
2490
2497
2480
2465
2453
2441
2437
2468
2508
2520
2511
2497
2486
2478
2471
2466
2465
2467
2470
2472
2481
2486
2478
2466
2452
2435
2420
2427
2406
2323
2290
2388
2511
2592
2618
2610
2586
2557
2526
2491
2460
2451
2420
2428
2493
2524
2525
2514
2493
2477
2470
2478
2485
2491
2490
2483
2469
2451
2438
2439
2435
2434
2441
2443
2446
2452
2447
2423
2439
2475
2473
2438
2430
2444
2492
2502
2486
2454
2442
2438
2445
2471
2517
2537
2540
2526
2503
2476
2453
2450
2444
2446
2442
2464
2471
2471
2468
2458
2435
2392
2387
2409
2440
2463
2482
2483
2483
2478
2472
2476
2485
2489
2473
2449
2432
2417
2409
2430
2466
2476
2461
2446
2460
2488
2502
2505
2497
2498
2493
2487
2466
2456
2451
2450
2449
2460
2466
2461
2449
2435
2431
2432
2414
2377
2368
2426
2482
2491
2501
2508
2515
2501
2484
2493
2503
2498
2475
2438
2425
2453
2475
2477
2485
2489
2487
2478
2458
2439
2425
2412
2419
2432
2453
2458
2462
2474
2491
2517
2516
2498
2484
2477
2467
2463
2480
2480
2462
2453
2468
2479
2483
2472
2467
2469
2467
2454
2432
2418
2418
2432
2451
2506
2525
2520
2517
2500
2484
2490
2509
2519
2513
2491
2469
2448
2443
2444
2453
2458
2468
2483
2465
2453
2487
2517
2523
2517
2503
2499
2493
2488
2470
2445
2442
2452
2475
2498
2503
2477
2454
2466
2462
2436
2404
2403
2444
2478
2512
2526
2523
2466
2389
2425
2516
2586
2592
2561
2522
2507
2512
2513
2508
2496
2491
2485
2468
2456
2447
2459
2473
2487
2497
2484
2466
2466
2460
2459
2475
2473
2474
2470
2463
2454
2450
2449
2430
2401
2404
2476
2550
2583
2580
2554
2517
2469
2442
2452
2456
2451
2427
2420
2451
2478
2481
2470
2457
2444
2451
2468
2479
2471
2459
2448
2455
2469
2474
2452
2400
2341
2368
2448
2491
2482
2468
2467
2478
2479
2489
2491
2462
2417
2394
2420
2458
2486
2494
2482
2468
2453
2426
2394
2387
2394
2402
2409
2409
2423
2444
2450
2431
2401
2413
2442
2452
2451
2446
2407
2355
2355
2400
2412
2385
2397
2455
2493
2491
2453
2414
2426
2435
2437
2452
2468
2483
2484
2467
2444
2433
2427
2425
2427
2429
2440
2443
2438
2421
2417
2420
2432
2433
2417
2395
2368
2354
2370
2374
2375
2383
2403
2435
2457
2500
2535
2551
2543
2523
2508
2497
2483
2462
2441
2415
2393
2387
2414
2441
2443
2439
2443
2444
2443
2437
2427
2409
2399
2391
2370
2371
2395
2411
2410
2401
2401
2418
2446
2460
2462
2466
2467
2459
2463
2466
2465
2459
2445
2428
2405
2390
2386
2380
2390
2406
2410
2397
2381
2366
2359
2370
2366
2359
2392
2441
2469
2468
2454
2441
2421
2402
2406
2409
2429
2427
2413
2411
2419
2432
2427
2410
2408
2423
2422
2414
2391
2373
2359
2357
2386
2407
2420
2417
2373
2322
2333
2396
2435
2438
2432
2418
2398
2401
2409
2403
2384
2374
2372
2378
2385
2383
2387
2384
2368
2345
2319
2278
2249
2271
2333
2415
2447
2397
2329
2348
2418
2452
2453
2451
2447
2432
2411
2402
2397
2389
2389
2389
2390
2387
2371
2357
2345
2337
2336
2342
2346
2340
2334
2332
2312
2251
2216
2296
2387
2425
2412
2394
2387
2404
2423
2424
2404
2389
2390
2374
2353
2337
2328
2307
2311
2329
2367
2405
2422
2418
2386
2337
2309
2331
2351
2355
2386
2421
2440
2430
2405
2383
2361
2347
2330
2340
2354
2371
2374
2371
2345
2314
2338
2390
2425
2430
2403
2383
2380
2383
2379
2367
2366
2368
2373
2364
2364
2378
2402
2405
2396
2385
2373
2381
2387
2385
2369
2359
2368
2385
2391
2374
2332
2289
2271
2338
2438
2502
2526
2523
2501
2457
2414
2401
2399
2416
2441
2450
2446
2437
2412
2370
2367
2393
2434
2474
2488
2480
2462
2444
2441
2434
2417
2401
2393
2384
2409
2442
2463
2455
2438
2432
2415
2398
2384
2401
2422
2412
2380
2353
2340
2340
2374
2432
2489
2511
2495
2464
2434
2406
2410
2441
2464
2468
2447
2404
2361
2329
2335
2368
2401
2429
2441
2442
2445
2426
2406
2356
2287
2216
2202
2267
2329
2365
2401
2411
2364
2272
2185
2147
2134
2174
2244
2291
2341
2386
2460
2517
2533
2520
2518
2553
2548
2507
2477
2462
2441
2420
2392
2365
2359
2358
2336
2281
2205
2116
2061
2070
2134
2244
2366
2470
2559
2622
2636
2555
2423
2231
1962
1708
1643
1787
2036
2334
2573
2684
2650
2467
2144
1804
1437
1243
1411
1785
2216
2477
2550
2579
2474
2212
2032
1993
2054
2135
2170
2123
2089
2057
1856
1536
1388
1568
1941
2335
2593
2685
2652
2523
2299
2105
2000
1954
1941
1977
2241
2510
2615
2653
2664
2577
2362
2144
1942
1698
1450
1599
1831
2137
2371
2465
2536
2587
2551
2332
1950
1665
1533
1560
1797
2156
2463
2569
2726
2824
2716
2323
1641
1004
760
995
1687
2416
2860
2737
2245
1942
2117
2383
2466
2244
1851
1642
1762
2173
2362
2517
2673
2656
2302
1727
1593
2077
2351
2364
2346
2473
2516
2116
1483
1301
1760
1942
1744
1518
1712
2262
2825
3036
2684
1907
1426
1542
1887
2307
2610
2482
2155
1679
1408
1619
1860
1965
2006
2248
2333
2252
1998
2128
2357
2217
2181
2491
2694
2026
1070
1162
1961
2565
2579
2210
2072
2045
2191
2169
2151
2160
2496
2752
2759
2609
1951
584
21
1006
2126
2889
2873
2576
2504
2520
2569
2864
2812
2324
1357
834
972
1733
2397
2874
3181
3261
3128
2763
2191
1849
1712
1719
1771
1695
1670
1898
2260
2415
2928
3085
2772
2199
1884
2056
2463
2743
2818
2679
2441
2062
1527
1180
1340
2258
2999
3417
3498
3122
2558
2137
2038
2546
3060
3056
2483
1822
1217
968
1436
2468
3232
3339
2785
2244
2355
2418
2526
2588
2625
2487
2214
2078
2431
3116
3626
3604
3132
2749
2152
1562
1507
1683
2087
2450
2541
2350
2131
1881
2033
2314
2444
2627
3081
3581
3730
3506
3035
2048
1130
1167
2273
3247
3624
3263
2315
1975
2284
2784
2927
2910
2895
2604
2226
2185
1842
1773
2018
2467
2513
2544
2980
3408
3679
3587
3175
2601
1866
1875
2238
2260
2164
2472
2777
2714
2601
2692
2719
2679
2463
2286
2212
2108
2111
2095
1942
2025
2691
3043
2823
2355
1827
2087
2936
3647
3699
3307
2736
2193
2034
1914
2374
3068
3354
3208
2769
2368
2068
1917
2077
2524
3075
3134
2539
1905
1966
2529
2790
2843
2764
2715
2846
2818
2698
2668
2713
2819
2563
2321
2268
2207
1803
2041
2554
2753
2781
2826
2637
2469
2616
2898
2769
2592
2557
2688
2856
2645
2076
1546
1803
2669
3272
3198
2765
2873
3077
3186
3086
2702
2312
2211
2231
1989
1455
1491
1968
2567
3159
3323
2851
2322
1997
2125
2508
2925
3144
3200
3064
2788
2631
2589
2494
2030
1754
1993
2420
2847
2990
2782
2294
2045
2235
2541
2785
2755
2341
2035
2061
2355
2691
2749
2258
2070
2308
2879
3240
2989
2182
1672
2187
2857
3274
3257
2991
2724
2416
2055
1822
1699
1624
1666
2277
3051
3238
2725
2486
2741
2849
2518
2075
1942
2134
2437
2634
2783
2748
2586
2607
2401
2037
1799
2101
2675
2701
1960
1198
1640
2074
2442
2906
3118
2970
2499
2015
2079
2584
2958
2899
2194
1584
2043
2887
3373
3381
3144
3022
2900
2505
1836
1317
1437
1907
2020
1940
1699
1753
1775
1487
1360
1866
2489
2801
3023
3088
3137
3051
2758
2590
2567
2525
2542
2637
2525
1944
1103
1145
1932
2701
3109
2687
2087
1885
2005
1755
1287
1418
2237
2851
3134
3308
3213
2810
2489
2483
2445
2384
2423
2269
1722
1511
1962
2598
2905
3042
3011
2841
2416
2003
1787
1855
2128
2501
2598
2181
1805
1784
2083
2188
2201
2372
2395
2337
2454
2667
2478
1963
1450
1634
2362
3054
3369
3268
2758
2392
2453
2515
2370
2020
1869
1926
2147
2526
2713
2712
2602
2352
2080
1936
1853
2007
2343
2466
2370
2268
2329
2489
2350
2111
2298
2544
2381
2031
2260
2633
2809
2838
2666
2476
2448
2568
2506
2515
2638
2608
2308
1973
2061
2094
2001
1942
2177
2561
2856
2952
2900
2681
2564
2567
2568
2353
2126
2139
2214
2321
2274
1966
1797
2142
2736
2991
2772
2481
2393
2488
2506
2392
2283
2138
2065
2066
2107
2332
2595
2677
2506
2557
2666
2755
2762
2591
2495
2252
1689
1512
2062
2704
3022
3070
2935
2833
2679
2224
1996
2233
2241
2015
2057
2448
2829
2745
2140
2112
2571
2918
3000
2884
2731
2388
1954
1889
2028
2348
2679
2816
2628
2325
2376
2617
2691
2462
1782
1580
2105
2695
3172
3211
2744
1982
1927
2263
2664
2720
2529
2463
2409
2404
2399
2485
2332
1889
1696
2273
3079
3470
3395
3111
2940
2747
2555
2314
2208
2073
1763
1779
2023
2193
2041
1924
2162
2467
2553
2373
2302
2423
2449
2608
2747
2676
2681
2389
2168
2205
2298
2216
2025
2190
2508
2746
2966
3094
2853
2595
2637
2939
3071
2916
2639
2147
1543
1394
1412
1588
2120
2404
2266
2200
2696
3123
3077
2601
2268
2350
2691
2804
2793
2753
2690
2520
2320
2029
2054
2195
2256
2346
2338
2252
2505
2821
2983
2862
2548
2322
2219
2200
2161
1921
1527
1579
1939
2211
2557
2874
3022
3004
2795
2500
2362
2167
1967
1756
1796
2069
2089
1783
1808
2184
2631
2894
3046
3025
2786
2385
2265
2367
2510
2551
2637
2662
2530
2236
2230
2378
2515
2550
2349
2051
1816
1785
2087
2352
2427
2473
2532
2443
1934
1459
1842
2609
3247
3466
3149
2607
2145
2000
2237
2487
2716
2768
2615
2428
2355
2271
1984
1881
1997
2139
2295
2280
2267
2060
1663
1644
2283
2939
3373
3498
3219
2813
2557
2401
2283
2125
1981
1827
1972
2194
2326
2259
2248
2288
2349
2170
1855
1743
2044
2313
2600
2887
2943
2706
2466
2314
2194
1970
1955
2321
2612
2611
2222
1952
1904
1874
1901
2233
2494
2434
2319
2346
2447
2461
2490
2338
2024
1944
2214
2394
2386
2328
2387
2470
2501
2416
2121
1686
1298
1413
2133
2790
3031
2930
2596
2285
2043
2013
2006
1960
1922
1836
1850
1831
2139
2332
2431
2495
2441
2172
1965
2144
2662
3014
2962
2537
2020
2014
2097
2265
2199
2053
2037
2216
2276
2159
2147
2189
2220
2404
2390
1876
1310
1186
1500
1934
2326
2520
2426
2047
1764
1602
1724
2145
2466
2545
2377
2231
2133
2399
2659
2808
2863
2783
2667
2480
2180
1860
1510
1240
1220
1676
2244
2493
2286
1763
1639
2080
2337
2317
2502
2712
2628
2291
1936
1771
1838
2022
2092
2228
2335
2246
2013
1987
2149
2226
2066
1910
2117
2361
2278
2028
1765
1499
1174
1150
1880
2552
2948
3020
2742
2438
2175
2061
2186
2250
2129
1901
1888
2015
2130
2143
1860
1824
2011
2243
2329
2163
1925
1753
1747
1801
1837
1687
1923
2323
2536
2445
2241
2302
2378
2260
2064
1890
1825
1864
1877
1718
1739
2059
2336
2441
2221
1817
1839
1976
2092
2146
2203
2244
2074
2004
1961
1922
2075
2292
2397
2298
1939
1632
1568
1649
2005
2344
2353
2269
2301
2440
2349
1955
1587
1465
1811
2191
2317
2144
1889
1851
1739
1682
1606
1759
2116
2480
2671
2572
2139
2061
2206
2166
1907
1689
1761
1896
2207
2531
2674
2735
2677
2371
1917
1415
1445
1712
1899
1956
1992
1890
1770
1900
1900
1881
1911
1953
1903
2253
2693
2696
2291
1924
1774
1756
1830
1767
1962
2449
2676
2688
2565
2250
1632
927
1056
1730
2343
2588
2657
2691
2650
2396
2037
1919
1856
1786
1905
2109
2325
2406
2268
2053
1894
1717
1559
1413
1235
1375
1764
2268
2756
2911
2714
2284
1713
1547
2101
2590
2771
2761
2533
2164
1707
1408
1059
975
1601
2289
2589
2580
2347
2093
1931
1932
2063
2090
1779
1865
2318
2535
2367
2108
1893
1902
2202
2523
2613
2563
2506
2278
1953
1808
1688
1324
1405
1905
2330
2229
1841
1873
2243
2451
2514
2595
2709
2728
2536
2292
1913
1553
1193
1290
1718
2223
2581
2742
2548
2355
2091
1916
2164
2431
2529
2400
2171
2133
2034
1823
1757
1828
2028
2001
1817
1898
2456
2907
3009
2926
2682
2392
1833
1417
1377
1557
1757
1723
1460
886
1107
2044
3030
3516
3479
3103
2629
2279
2249
2534
2768
2888
2737
2109
1308
829
1649
2593
3054
3055
2783
2287
1987
2176
2444
2461
1971
1227
978
1321
1681
1691
1710
2286
2856
3067
2759
2223
1769
1653
1831
2057
2215
2468
2745
3266
3522
3342
2622
1855
1697
2025
2421
2683
2481
2088
2151
2180
2006
1894
2014
2165
2444
2892
3034
2557
1424
420
641
1611
3075
4095
4095
3801
3158
2549
2036
1854
1973
2008
1988
2384
2794
2889
2798
2469
1862
1570
1910
2372
2638
2620
2281
1977
1947
2141
2495
2637
2115
1321
1440
2035
2859
3498
3482
2735
1897
1710
2025
2629
3033
3195
3063
2787
2743
2728
2600
2324
2104
2071
2367
2611
2393
1977
1882
2098
2198
2285
2363
2451
2369
2181
1997
2125
2293
2433
2325
2363
2457
2630
2873
2826
2194
1432
1846
2951
3572
3513
3176
3047
2887
2666
2390
2300
2408
2515
2540
2548
2551
2362
1819
1236
1347
2065
2825
3135
2953
2478
2293
2415
2476
2642
2831
2839
2660
2310
1718
1129
1524
2422
3042
3520
3805
3578
3115
2809
2628
2523
2416
2266
2236
2221
1979
1671
1715
2082
2410
2382
1954
1551
1608
2010
2914
3724
3941
3825
3589
3212
2712
2405
2309
2374
2435
2410
2183
2034
2082
2157
2442
2657
2724
2677
2488
2407
2504
2643
2650
2476
2333
2151
2070
1914
2168
2627
2904
2935
2901
2833
2731
2691
2691
2810
2812
2626
2325
2355
2517
2479
2090
1659
1570
2203
2717
2773
2545
2201
2218
2413
2658
2988
3152
3071
2882
2623
2280
2135
2321
2523
2484
2432
2753
3006
2857
2406
2043
2037
2203
2467
2898
3190
3149
2890
2669
2481
2451
2604
2653
2537
2421
2274
2264
2290
2088
1576
1278
1683
2615
3400
3848
3838
3391
2782
2353
2119
2027
2318
2425
2450
2275
2206
2506
2437
1828
1326
1559
2499
3254
3170
2698
2801
3057
3133
2964
2359
1657
1923
2873
3554
3614
3325
2874
2520
2457
2507
2527
2214
1533
1261
1716
2437
3113
3110
2694
2392
2353
2572
2756
2595
2096
2236
2631
2580
2270
2205
2466
2950
3201
3207
3030
3009
3094
3061
2910
2800
2628
2156
1548
1351
1549
1932
2447
2811
2711
2283
2096
2438
2770
2847
2592
2459
2120
1772
1747
2214
2767
2840
2876
3034
2954
2420
2107
2586
3153
3387
3208
2770
2408
1996
1653
1324
1685
2732
3316
3365
2748
1992
1955
2389
2985
3228
2945
2503
2234
2228
2255
2233
2255
2305
2413
2581
2788
2922
2862
2480
1953
1793
2115
2377
2626
3159
3450
3404
3143
2769
2341
2127
1916
1774
1975
2099
2334
2666
2938
3020
2931
2601
2238
2207
2524
2902
3089
3016
2546
1856
1178
1109
1967
2878
3285
3177
2766
2456
2259
2275
2618
2616
2101
1636
1818
2470
3148
3431
3195
2624
2347
2608
2966
3059
2750
2478
2630
2877
2881
2673
2403
2249
2153
2124
2115
2167
1955
1825
1915
2212
2584
2698
2469
2309
2304
2405
2704
2768
2435
2173
1844
1767
2264
3033
3543
3585
3244
2744
2362
2284
2462
2636
2546
2269
2069
1854
1588
1745
2428
3124
3393
3367
3312
3106
2619
1891
1239
1371
2083
2841
3203
3146
2762
2383
2316
2501
2601
2563
2489
2426
2436
2454
2460
2391
2393
2505
2446
2246
2043
1895
1923
2402
2871
2934
2706
2326
2119
2227
2190
2319
2546
2593
2647
2749
2602
2122
1812
2152
2694
2950
3009
2869
2711
2730
2803
2797
2682
2402
2228
2061
1739
1608
1954
2395
2637
2753
2926
2910
2688
2476
2374
2473
2456
2189
2088
2265
2367
2546
2806
2916
2894
2777
2494
2172
1931
2022
2380
2751
2860
2831
2897
2965
2685
2293
2093
1907
1683
1601
1698
2004
2089
2474
2922
3080
2855
2496
2192
2041
2084
2142
2114
2400
2738
2898
2795
2768
2834
2842
2726
2414
2173
2242
2438
2533
2577
2660
2610
2584
2496
2181
1727
1368
1180
1485
2165
2678
2881
2707
2143
1819
2139
2682
2972
3057
2873
2504
2233
2186
2288
2270
2107
1960
1997
2178
2551
2895
2989
2915
2765
2579
2210
1500
1331
1619
2207
2864
3250
3074
2488
2117
1966
2066
2050
1887
1793
1851
2045
2438
2854
3021
2950
2778
2625
2291
2016
2141
2605
2936
3073
2863
2245
1632
1245
1729
2433
2918
2916
2708
2527
2140
1557
1531
1969
2109
1913
1782
2003
2528
3042
3459
3425
2738
2215
2300
2365
2561
2851
2986
2823
2504
2516
2640
2609
2487
2382
2451
2576
2601
2476
2067
1355
928
1055
1613
2129
2251
2381
2509
2305
1957
2169
2784
3204
3244
3159
2894
2613
2414
2245
2150
2397
2800
3025
2923
2555
2078
1687
1521
1708
2069
2280
2113
1960
1841
1957
2254
2650
2863
2931
2799
2419
2070
2138
2452
2597
2832
2925
2786
2557
2303
2049
2111
2387
2651
2752
2672
2550
2452
2274
2235
2067
1934
1907
2050
2315
2409
2314
2171
1935
1799
1953
2472
2866
3119
3111
2797
2423
2151
2008
2340
2833
3022
2972
2819
2563
2186
1941
1988
2184
2259
2104
1911
1840
1968
2119
2433
2595
2657
2703
2791
2785
2505
2067
1819
1837
2000
2190
2388
2363
2413
2565
2732
2636
2451
2477
2675
2727
2467
2294
2452
2732
2736
2412
1923
1862
2084
2328
2473
2402
2237
2126
1794
1645
1763
2080
2370
2474
2114
2183
2855
3475
3728
3563
3189
2835
2500
2273
2305
2306
2005
1602
1819
2413
2861
2865
2691
2544
2169
1738
1511
1692
2056
2327
2407
2347
1954
1866
2433
2730
2581
2649
2979
3212
3000
2515
2233
2209
2669
3322
3558
3269
2697
2136
1756
1988
2385
2356
1780
1308
1544
2344
3349
3725
3397
2895
2688
2466
2502
2841
3148
3117
2769
2188
1808
1933
2315
2525
2625
2608
2408
1986
2116
2705
3075
2882
2166
1737
1795
2203
2525
2435
2014
1463
1406
2269
3151
3547
3227
2736
2295
2299
2509
2505
2476
2617
2880
3000
3044
2865
2511
2156
1915
1838
1960
2016
2087
2369
2638
2608
2486
2215
2092
2020
2054
2152
2072
1937
1895
2098
2499
2830
2876
2830
2784
2701
2321
1890
1889
2270
2659
2840
2760
2372
2132
2191
2465
2791
2853
2503
2047
1849
1906
1935
1984
2085
2046
1891
2051
2232
2305
2438
2481
2634
2777
2743
2604
2626
2714
2779
2864
2888
2705
2545
2334
2063
1892
1833
1871
1954
2078
2069
1724
1617
1859
2221
2415
2435
2520
2433
2272
2332
2357
2390
2574
2874
3224
3280
3013
2499
1912
1648
1972
2533
2908
2852
2172
1638
1706
2071
2233
2087
2106
2245
2287
2459
2637
2747
2669
2541
2356
2396
2615
2716
2640
2339
1901
1830
2318
2663
2488
2123
1868
2025
2214
2298
2507
2643
2604
2329
2177
2162
2303
2419
2172
1923
2220
2621
2775
2593
2430
2502
2673
2692
2495
2333
2234
2278
2366
2440
2442
2249
2167
2276
2320
2185
1858
1859
2121
2501
2762
2818
2288
1693
1481
1880
2592
3088
3131
2546
1692
1632
2023
2357
2304
2239
2419
2474
2502
2481
2152
1945
2241
2619
2894
3094
3029
2784
2543
2525
2657
2690
2631
2530
2325
2173
2151
2232
2300
2181
1947
1894
2182
2309
2121
1795
1764
2112
2309
2498
2678
2581
2364
2111
2063
2269
2433
2360
2109
2223
2621
2890
2915
2835
2737
2673
2604
2450
2201
2049
1991
1964
1923
1895
1944
2019
2041
2119
2312
2652
2903
3034
2946
2620
2375
2200
1963
1762
1959
2294
2381
2131
2008
2333
2561
2609
2639
2784
2923
2713
2268
2090
2267
2426
2494
2555
2633
2612
2435
2159
1877
1762
1720
1884
2222
2506
2483
2498
2524
2474
2426
2530
2594
2418
1931
1674
1813
2183
2704
2910
2798
2686
2707
2692
2643
2536
2222
2026
2245
2503
2600
2563
2307
1965
1756
1760
1883
1881
1553
1324
1582
2246
2814
3053
2948
2577
2330
2204
1966
1642
2215
2800
3053
2937
2817
2954
2961
2729
2333
1963
1808
1945
2142
2201
2345
2501
2423
2313
2339
2240
2162
1936
2170
2643
2926
2843
2469
1905
1406
1716
2443
2692
2440
2575
3158
3491
3407
2856
1840
1051
1639
2611
3218
3253
2948
2634
2373
2170
1985
1803
1776
2009
2313
2551
2403
2084
2075
2118
2404
2680
2561
1995
1236
832
1522
2716
3612
3819
3510
2997
2506
2421
2501
2440
2438
2560
2729
2769
2744
2594
2415
2144
1648
1182
1467
1975
2246
2415
2590
2608
2531
2504
2418
2227
1856
1657
1876
2488
2970
3022
2795
2468
2270
2265
2489
2634
2720
2762
2727
2524
2281
2084
2028
2133
2216
2005
1900
2274
2495
2687
2794
2566
2170
1868
1818
1718
1515
1931
2617
2752
2759
2862
2849
2736
2682
2629
2549
2797
2993
2901
2581
2356
2434
2543
2567
2458
2267
2074
1966
1837
1820
2071
2125
1912
1915
2033
2169
2463
2715
2653
2518
2465
2424
2318
2363
2408
2519
2541
2346
2192
2215
2296
2530
2780
2852
2813
2670
2352
2070
1845
1723
1874
2167
2297
2297
2098
2108
2349
2534
2643
2514
2341
2333
2476
2691
2590
2078
1920
2075
2624
3114
3323
3259
2899
2281
1802
1904
2183
2342
2500
2692
2648
2489
2428
2426
2449
2423
2326
2208
2122
2200
2357
2204
2003
1954
1808
1885
2461
3030
3380
3461
3212
2851
2491
2129
1904
1937
2201
2475
2517
2335
2296
2637
2961
3008
2723
2208
2010
2183
2491
2522
2290
1883
1629
1822
2149
2024
1814
2105
2563
2831
2863
2296
1387
1529
2526
3319
3641
3507
3159
2819
2407
1989
1829
1980
2371
2844
3197
3248
2983
2554
2034
1725
1664
1759
1916
2041
2116
1988
1320
534
916
2146
3084
3362
3295
3152
2932
2455
2094
2070
2009
1677
1813
2549
3095
3201
3102
3000
2879
2740
2503
2150
2018
2090
2239
2268
2238
2357
2351
2143
1623
607
539
1597
2664
3293
3589
3514
2937
2555
2567
2707
2846
2666
2164
1809
1795
2109
2603
3080
3373
3349
3017
2529
1793
1103
1246
2134
2979
3411
3320
2665
1794
1486
1515
1718
1858
1903
2179
2755
3149
3122
2584
2137
2077
2385
2679
2883
2813
2657
2562
2471
2453
2586
2618
2536
2368
2190
1974
1888
2031
2091
1786
1454
1312
1710
2445
3020
3072
2778
2398
2312
2386
2399
2471
2526
2546
2280
1999
1948
2174
2405
2514
2435
2471
2704
2830
2785
2673
2439
2136
2036
2177
2405
2640
2689
2437
1970
1722
1944
2261
2323
2383
2403
2373
2330
2385
2302
2047
1905
1849
1821
1808
2299
2880
2994
2730
2545
2664
2975
3198
3101
2747
2563
2459
2323
2107
1838
1734
1560
1355
1718
2365
2666
2681
2553
2490
2651
2744
2454
1800
1489
2017
2660
3079
3054
2802
2645
2560
2516
2465
2430
2460
2381
2128
1866
1819
1977
2229
2220
1946
1960
2199
2486
2608
2698
2824
2944
2787
2444
2156
2018
2115
2368
2491
2454
2438
2328
2216
2393
2537
2549
2580
2630
2574
2429
2085
1733
1740
2032
2198
2336
2404
2341
2113
2027
1786
1411
1822
2897
3644
3681
3410
3063
2608
2202
2152
2451
2605
2519
2428
2534
2640
2511
2399
2477
2490
2268
2021
1935
1948
2064
2107
1975
1887
1807
1845
1958
1910
1851
2194
2634
3013
3149
3000
2771
2486
2510
2854
3053
3094
3142
3115
2920
2661
2320
1981
1720
1785
2076
2286
2127
1996
2090
2410
2669
2408
2274
2362
2031
1795
2334
2887
3072
2982
2928
2753
2468
2226
2143
2319
2606
2727
2638
2395
2129
2217
2524
2743
2661
2338
2253
2360
2442
2505
2580
2554
2430
2351
2169
1871
1618
1670
2072
2492
2719
2809
2787
2708
2659
2564
2586
2647
2632
2454
2195
2074
2093
2245
2408
2551
2626
2609
2540
2490
2448
2377
2234
2013
1881
2013
2044
1961
2025
2221
2418
2603
2537
2213
2056
2356
2604
2689
2873
2970
2885
2708
2548
2477
2334
2188
2122
2408
2764
2960
2957
2800
2404
1827
1678
1766
1855
2061
2353
2581
2517
2387
2321
2163
2060
1875
1960
2345
2704
2941
2752
1977
1216
1660
2532
3122
3335
3147
2806
2552
2426
2425
2454
2479
2503
2545
2620
2566
2355
2077
1897
1990
2034
2191
2490
2720
2817
2696
2486
2300
2293
2361
2363
2356
2348
2305
2241
2033
1713
1621
1938
2269
2542
2710
2631
2503
2473
2501
2529
2403
2250
2188
2159
2142
2200
2377
2492
2567
2604
2585
2518
2458
2386
2307
2295
2313
2280
2204
2100
2003
1954
2010
2109
2390
2778
2972
2822
2596
2518
2524
2518
2388
2241
2117
2003
2112
2387
2568
2597
2425
2286
2339
2496
2646
2659
2503
2332
2284
2332
2330
2351
2436
2514
2566
2560
2548
2508
2401
2228
1995
1834
1857
2010
2151
2211
2255
2333
2363
2296
2108
1706
1273
1157
1463
2048
2645
3167
3371
3284
3069
2823
2605
2398
2186
2027
2020
2137
2264
2286
2238
2221
2242
2251
2235
2177
2005
1876
1965
2164
2355
2386
2317
2156
2037
1972
2023
2085
2057
2104
2306
2488
2515
2424
2317
2237
2221
2251
2329
2419
2476
2504
2518
2482
2465
2487
2538
2609
2637
2607
2526
2399
2280
2263
2287
2302
2290
2250
2221
2189
2144
2117
2153
2207
2239
2246
2223
2165
2109
2080
2083
2092
2120
2144
2162
2169
2144
2120
2135
2180
2216
2228
2217
2187
2169
2145
2124
2152
2196
2223
2227
2222
2208
2190
2163
2122
2077
2087
2143
2199
2225
2235
2212
2195
2196
2195
2184
2167
2182
2179
2152
2146
2180
2219
2264
2307
2314
2286
2257
2252
2245
2241
2237
2225
2210
2189
2156
2151
2187
2246
2305
2333
2340
2317
2281
2238
2225
2257
2284
2294
2349
2380
2376
2371
2379
2391
2386
2389
2420
2449
2468
2472
2465
2444
2432
2429
2426
2420
2416
2411
2395
2380
2364
2360
2365
2349
2371
2456
2503
2506
2478
2427
2404
2419
2441
2446
2443
2430
2415
2402
2387
2377
2373
2362
2351
2350
2372
2396
2409
2413
2406
2410
2421
2438
2439
2405
2374
2354
2331
2341
2392
2429
2432
2441
2468
2494
2499
2480
2450
2423
2408
2401
2400
2402
2400
2394
2382
2380
2387
2379
2366
2347
2360
2432
2476
2488
2482
2466
2449
2434
2408
2386
2379
2403
2428
2437
2432
2431
2437
2434
2410
2381
2387
2405
2409
2397
2370
2330
2288
2301
2353
2438
2497
2520
2516
2495
2454
2404
2379
2392
2406
2405
2383
2316
2266
2268
2327
2420
2490
2498
2479
2461
2431
2394
2360
2352
2395
2446
2463
2445
2429
2422
2411
2395
2392
2391
2387
2379
2357
2334
2342
2367
2403
2415
2430
2411
2371
2345
2357
2402
2426
2415
2385
2372
2355
2339
2340
2355
2379
2389
2378
2373
2371
2363
2359
2363
2363
2339
2307
2285
2292
2324
2360
2368
2353
2309
2261
2269
2323
2376
2416
2425
2414
2393
2382
2379
2370
2358
2351
2344
2341
2338
2338
2336
2328
2319
2312
2319
2318
2318
2320
2321
2310
2305
2318
2328
2314
2283
2271
2298
2356
2389
2395
2386
2371
2371
2366
2365
2372
2372
2370
2362
2355
2337
2314
2302
2309
2334
2367
2370
2348
2339
2344
2344
2358
2379
2390
2371
2356
2363
2397
2416
2407
2359
2317
2315
2367
2414
2433
2426
2416
2399
2382
2365
2341
2319
2321
2341
2337
2329
2347
2386
2416
2459
2478
2474
2452
2427
2406
2385
2362
2357
2372
2382
2374
2339
2296
2296
2299
2292
2300
2352
2424
2471
2466
2371
2218
2143
2204
2340
2485
2576
2593
2562
2510
2453
2414
2393
2379
2372
2362
2355
2360
2361
2359
2353
2328
2317
2339
2361
2373
2365
2361
2364
2360
2343
2314
2314
2337
2356
2366
2361
2346
2332
2325
2331
2349
2341
2320
2301
2292
2340
2389
2413
2421
2411
2372
2321
2288
2302
2329
2347
2363
2359
2342
2339
2350
2347
2331
2339
2344
2336
2341
2341
2337
2342
2342
2340
2329
2324
2330
2336
2334
2330
2317
2302
2289
2283
2286
2291
2309
2333
2350
2347
2330
2324
2332
2323
2312
2307
2333
2370
2389
2381
2363
2347
2328
2302
2285
2293
2320
2324
2315
2314
2326
2341
2350
2340
2320
2308
2317
2327
2335
2339
2342
2334
2320
2309
2291
2274
2270
2303
2344
2351
2362
2368
2362
2351
2333
2313
2303
2306
2307
2303
2312
2339
2342
2350
2351
2344
2319
2292
2285
2288
2281
2272
2292
2324
2321
2298
2303
2300
2315
2334
2356
2375
2376
2374
2366
2354
2338
2333
2335
2334
2340
2344
2341
2337
2329
2320
2315
2315
2321
2317
2298
2286
2319
2356
2368
2353
2341
2328
2334
2346
2363
2373
2368
2356
2347
2337
2327
2324
2329
2331
2332
2323
2310
2291
2284
2318
2353
2379
2379
2369
2358
2339
2323
2313
2315
2329
2344
2355
2359
2350
2324
2313
2341
2365
2377
2382
2382
2380
2374
2366
2366
2367
2389
2407
2397
2385
2378
2382
2375
2363
2358
2359
2385
2401
2397
2393
2387
2355
2313
2335
2342
2346
2374
2412
2440
2460
2471
2464
2446
2422
2402
2388
2377
2358
2349
2361
2389
2405
2413
2419
2409
2402
2411
2432
2429
2401
2395
2411
2411
2403
2394
2387
2383
2399
2420
2424
2409
2397
2394
2393
2393
