13.600199999978956
-2.927816616081818
1.5972118354461518
-1.0839540114942579
0.8267136210559404
-0.655627198390934
0.5582082401691911
-0.46664510209410576
0.4232149573526968
-0.35994785599607126
0.3425929047549367
-0.2910826210707795
0.2893682968152443
-0.2427013895935083
0.25186342722113614
-0.20664878301884004
0.22420718241332038
-0.17858886316259343
0.2031268876072115
-0.15600458755141103
0.18665462374474232
-0.13733495685711264
0.1735361758842587
-0.12156062052925767
0.16293448460648435
-0.10798776695139391
0.15426957400100733
-0.09612781051248642
0.14712691655224736
-0.08562675261689764
0.14120237662731386
-0.0762218345775856
0.1362677634416272
-0.0677139269377875
0.13214852293093524
-0.059949371537225425
0.12870885550326433
-0.05280770506261269
0.12584152774782187
-0.04619315564029835
0.12346073731890811
-0.04002862567546125
0.12149701443869121
-0.034251352344987905
0.11989351267479931
-0.02880972432149662
0.11860326656699738
-0.023660910628337334
0.1175871343472126
-0.018769069777491137
0.11681223407659282
-0.014103980017096354
0.11625074045216242
-0.00963997952835104
0.11587894883809798
-0.0053551377262891905
0.11567653975657453
-0.0012306009351224563
0.11562599547882244
0.002749928915743865
0.11571213324475002
0.006600613089054925
0.11592172878940057
0.01033381509892272
0.11624321042987282
0.01396037719824853
0.1166664087524058
0.01748984736382905
0.11718235045684744
0.020930666819322357
0.11778308753054259
0.02429032587395725
0.11846155488440072
0.027575494151954896
0.11921145106822509
0.030792129990830475
0.12002713781544047
0.03394557279548896
0.12090355503823988
0.03704062136713513
0.12183614857046797
0.040081600630991726
0.1228208084820431
0.04307241871846801
0.12385381620380648
0.04601661599292505
0.12493179902864116
0.04891740731425521
0.12605169081568934
0.051777718606166305
0.1272106979330896
0.05460021860236013
0.12840626964203275
0.05738734649711143
0.12963607226105167
0.06014133610370972
0.1308979665590013
0.06286423702487348
0.1321899879160196
0.06555793325721178
0.13351032886472275
0.06822415958590711
0.13485732368490572
0.07086451606936515
0.1362294347759295
0.07348048086882078
0.13762524057115527
0.07607342163926706
0.13904342479539586
0.07864460566658475
0.1404827668939198
0.08119520890871156
0.14194213348700785
0.08372632407703928
0.1434204707236478
0.08623896787457208
0.14491679742637542
0.08873408749153147
0.14643019893301898
0.09121256644642176
0.14795982155438395
0.0936752298476881
0.14950486757672526
0.09612284914184692
0.15106459074810835
0.0985561464064506
0.15263829219450914
0.10097579823679287
0.15422531671856843
0.10338243927154465
0.15582504944020534
0.10577666539522051
0.15743691274247135
0.10815903665185461
0.15906036349103364
0.11053007989964839
0.16069489049863897
0.11289029123312348
0.16234001221048025
0.11524013819622107
0.1639952745876848
0.11758006180700423
0.16566024916958394
0.11991047841247413
0.1673345312976439
0.1222317813899173
0.16901773848538676
0.12454434270945504
0.1707095089201454
0.12684851437061315
0.1724095000850903
0.1291446297247734
0.17411738748967892
0.13143300469401575
0.17583286349933952
0.1337139388955339
0.177555636254861
0.13598771667992812
0.17928542867411834
0.13825460809162965
0.18102197752847785
0.1405148697571885
0.1827650325877949
0.14276874570844583
0.18451435582770598
0.14501646814597471
0.18626972069449088
0.14725825814732058
0.18803091142223252
0.1494943263251989
0.189797722398455
0.15172487343953353
0.19156995757355816
0.1539500909668025
0.1933474299115294
0.15617016163065414
0.1951299608776202
0.15838525989628394
0.19691737996084538
0.16059555243178844
0.19870952422824487
0.1628011985389931
0.20050623790856487
0.16500235055600368
0.20230737200291934
0.16719915423342166
0.20411278392085225
0.16939174908675453
0.2059223371393291
0.17158026872630788
0.2077359008835642
0.17376484116626736
0.2095533498274845
0.17594558911469316
0.21137456381302075
0.1781226302456218
0.21319942758633137
0.18029607745455953
0.21502783055024016
0.1824660390986464
0.21685966653119457
0.18463261922239818
0.21869483356053937
0.18679591777019325
0.22053323366835775
0.1889560307861771
0.22237477268910008
0.19111305060277115
0.2242193600790186
0.1932670660182434
0.22606690874354035
0.1954181624641552
0.2279173348745879
0.19756642216351092
0.22977055779701402
0.19971192427985837
0.23162649982360603
0.201854745058271
0.233485086117924
0.20399495795884345
0.23534624456491487
0.20613263378242577
0.23720990564807976
0.20826784079005015
0.23907600233369175
0.21040064481564583
0.24094446996080549
0.21253110937317907
0.2428152461372107
0.21465929575771328
0.24468827064088694
0.21678526314162128
0.24656348532635217
0.21890906866569523
0.2484408340359807
0.2210307675254864
0.2503202625157275
0.2231504130534619
0.25220171833519484
0.22526805679694273
0.254085150811647
0.2273837485921372
0.2559705109377412
0.229497536634648
0.2578577513130175
0.23160946754627335
0.25974682607830024
0.23371958643890078
0.26163769085383465
0.23582793697507637
0.2635303026799545
0.23793456142565741
0.2654246199607596
0.240039500724929
0.26732060241046285
0.24214279452302476
0.2692182110021497
0.24424448123583414
0.2711174079190811
0.24634459809260026
0.2730181565080637
0.24844318118156802
0.2749204212350488
0.2505402654931845
0.2768241676427563
0.25263588496162404
0.2787293623102174
0.25473007250433793
0.2806359728140995
0.25682286005980215
0.28254396769175316
0.25891427862367117
0.2844533164058589
0.2610043582833435
0.28636398931069057
0.2630931282509299
0.2882759576198422
0.26518061689492173
0.29018919337522275
0.2672668517703663
0.2921036694175774
0.26935185964782465
0.29401935935809437
0.2714356665411169
0.29593623755131593
0.2735182977338525
0.29785427906913337
0.27559977780485173
0.29977345967585983
0.27768013065266395
0.3016937558044027
0.2797593795186726
0.303615144533238
0.2818375470098836
0.3055376035646419
0.28391465512010566
0.30746111120355485
0.2859907252507805
0.3093856463372195
0.2880657782307149
0.31131118841599953
0.2901398343351721
0.31323771743447565
0.29221291330406474
0.31516521391380803
0.29428503435950376
0.3170936588842977
0.29635621622283503
0.3190230338690682
0.29842647713060966
0.32095332086793543
0.30049583485029013
0.32288450234238214
0.3025643066952596
0.3248165612006594
0.3046319095391714
0.32674948078366867
0.30669865982982614
0.3286832448515384
0.3087645736025894
0.3306178375702308
0.31082966649321586
0.3325532434992005
0.31289395375010265
0.3344894475791563
0.3149574502464375
0.3364264351202728
0.31702017049141634
0.33836419179106414
0.3190821286414956
0.3403027036075027
0.3211433385109919
0.34224195692242787
0.32320381358235084
0.34418193841568673
0.3252635670160136
0.3461226350841099
0.3273226116600055
0.34806403423240795
0.3293809600592662
0.3500061234639538
0.33143862446424527
0.3519488906721325
0.3334956168398355
0.353892324031891
0.3355519488734009
0.35583641199148436
0.3376076319828872
0.35778114326480487
0.33966267732447825
0.35972650682371615
0.3417170958001749
0.36167249189069534
0.34377089806478545
0.36361908793174424
0.34582409453308854
0.36556628464966373
0.3478766953864839
0.36751407197727426
0.34992871057943525
0.36946244007115703
0.3519801498459174
0.3714113793054304
0.3540310227052273
0.37336088026574343
0.3560813384681783
0.3753109337435312
0.3581311062425233
0.3772615307303761
0.36018033493859186
0.37921266241272444
0.36222903327457606
0.38116432016654006
0.3642772097817004
0.3831164955521409
0.36632487280912795
0.3850691803095147
0.36837203052894996
0.38702236635347015
0.3704186909407063
0.3889760457689893
0.3724648618759588
0.39093021080686124
0.3745105510027024
0.3928848538792587
0.3765557658296123
0.39483996755560463
0.3786005137101211
0.39679554455856914
0.3806448018464314
0.3987515777601384
0.3826886372934369
0.4007080601776738
0.38473202696233677
0.40266498497038067
0.3867749776244488
0.4046223454356284
0.38881749591458165
0.4065801350055412
0.3908595883345375
0.40853834724358695
0.39290126125641817
0.4104969758412561
0.39494252092580023
0.4124560146151124
0.39698337346489665
0.41441545750345
0.39902382487564036
0.41637529856342553
0.401063881042501
0.4183355319681571
0.40310354773541657
0.4202961520039073
0.40514283061258816
0.4222571530673706
0.4071817352231507
0.4242185296630007
0.4092202670097125
0.4261802764003825
0.4112584313110847
0.4281423879918397
0.41329623336452603
0.4301048592498694
0.41533367830821655
0.4320676850848634
0.41737077118379085
0.43403086050284534
0.41940751693824996
0.4359943806030963
0.42144392042645396
0.43795824057613103
0.4234799864130718
0.43992243570154915
0.42551571957477474
0.44188696134588895
0.42755112450226807
0.4438518129607931
0.42958620570214345
0.4458169860808919
0.4316209675989063
0.4477824763220413
0.4336554145368293
0.4497482793794692
0.4356895507816634
0.4517143910259506
0.43772338052254567
0.453680807110059
0.43975690787354066
0.4556475235545367
0.44179013687555785
0.4576145363545938
0.4438230714976869
0.4595818415763511
0.4458557156390301
0.4615494353551569
0.4478880731300585
0.4635173138943271
0.44992014773419714
0.4654854734632794
0.45195194314934
0.4674539103964807
0.4539834630091166
0.4694226210917838
0.4560147108844867
0.47139160200923014
0.4580456902848767
0.47336084966954683
0.46007640465963107
0.4753303606529596
0.462106857399242
0.47730013159791523
0.46413705183666776
0.4792701591998232
0.4661669912484181
0.48124044020992496
0.4681966788558702
0.4832109714339333
0.47022611782634305
0.4851817497311742
0.47225531127432896
0.48715277201320034
0.47428426226240894
0.4891240352428693
0.4763129738025202
0.4910955364332514
0.4783414488568933
0.49306727264657946
0.48036969033910853
0.4950392409932079
0.4823977011150631
0.49701143863071207
0.48442548400395513
0.4989838627629095
0.4864530417792543
0.5009565106388277
0.48848037716961046
0.5029293795518692
0.4905074928596976
0.5049024668389991
0.49253439149125655
0.5068757698797279
0.49456107566374496
0.5088492860953328
0.4965875479353164
0.5108230129480118
0.49861381082359213
0.5127969479401326
0.5006398668065211
0.5147710886133201
0.5026657183229911
0.5167454325478229
0.5046913677737761
0.5187199773617032
0.5067168175222581
0.5206947207100627
0.5087420698950532
0.5226696602843673
0.5107671271827076
0.5246447938117061
0.5127919916405975
0.5266201190542477
0.5148166654894
0.5285956338083077
0.5168411509158296
0.5305713359038774
0.518865450073244
0.5325472232040973
0.5208895650823764
0.534523293604314
0.522913498031864
0.5364995450317398
0.5249372509787986
0.5384759754446442
0.526960825949562
0.5404525828320547
0.5289842249401114
0.5424293652128377
0.5310074499166842
0.5444063206354631
0.5330305028163621
0.5463834471772446
0.5350533855475567
0.5483607429438416
0.5370760999906092
0.5503382060688212
0.5390986479981769
0.5523158347130973
0.5411210313958887
0.554293627064454
0.5431432519827873
0.5562715813369553
0.545165311531735
0.5582496957705836
0.5471872117899682
0.5602279686307851
0.5492089544795563
0.5622063982079303
0.5512305412978054
0.5641849828168685
0.5532519739177479
0.5661637207965542
0.5552732539885774
0.5681426105095858
0.557294383136054
0.5701216503418189
0.5593153629628619
0.5721008387018223
0.5613361950490957
0.5740801740206807
0.5633568809526712
0.5760596547514654
0.5653774222096615
0.5780392793688944
0.5673978203346723
0.5800190463689106
0.5694180768212316
0.5819989542683605
0.5714381931422471
0.5839790016046479
0.5734581707501218
0.5859591869353056
0.5754780110773814
0.5879395088377247
0.5774977155368716
0.5899199659088006
0.5795172855220856
0.591900556764504
0.581536722407543
0.5938812800397414
0.5835560275491267
0.5958621343878402
0.585575202284286
0.5978431184803742
0.5875942479324957
0.5998242310067949
0.589613165795484
0.6018054706741925
0.5916319571574742
0.6037868362068343
0.5936506232856312
0.6057683263461145
0.5956691654302136
0.6077499398501138
0.5976875848248504
0.6097316754933634
0.5997058826868863
0.6117135320665389
0.6017240602176788
0.6136955083762662
0.6037421186026913
0.6156776032448364
0.6057600590119571
0.6176598155098675
0.6077778826002393
0.6196421440241937
0.6097955905072122
0.6216245876555322
0.6118131838578043
0.6236071452862243
0.6138306637624612
0.6255898158130551
0.6158480313172298
0.6275725981469964
0.6178652876041402
0.629555491212989
0.6198824336913734
0.6315384939497335
0.6218994706334751
0.6335216053093751
0.6239163994715448
0.6355048242574296
0.6259332212335313
0.637488149772504
0.6279499369343636
0.6394715808460671
0.6299665475761854
0.6414551164823042
0.6319830541485736
0.6434387556978403
0.6339994576286719
0.6454224975216596
0.6360157589815033
0.6474063409947767
0.638031959160025
0.6493902851701818
0.6400480591053784
0.6513743291125305
0.6420640597470748
0.6533584718980683
0.6440799620032274
0.6553427126144206
0.6460957667805369
0.6573270503603569
0.6481114749747119
0.6593114842457107
0.650127087470475
0.6612960133911651
0.6521426051417882
0.6632806369280664
0.6541580288519987
0.665265353998345
0.6561733594539843
0.6672501637542655
0.6581885977903594
0.6692350653583048
0.6602037446936067
0.6712200579829833
0.6622188009861893
0.6732051408108013
0.6642337674807685
0.6751903130339346
0.6662486449803252
0.6771755738541924
0.6682634342782329
0.6791609224829336
0.6702781361585276
0.6811463581407428
0.6722927513959654
0.6831318800575007
0.6743072807561388
0.6851174874720685
0.6763217249956883
0.6871031796322936
0.67833608486239
0.6890889557947466
0.6803503610952575
0.6910748152247719
0.6823645544247043
0.693060757196178
0.684378665572703
0.6950467809912245
0.6863926952528299
0.6970328859004354
0.6884066441704163
0.6990190712225791
0.6904205130226827
0.7010053362644062
0.6924343024988859
0.7029916803406604
0.6944480132803752
0.7049781027738871
0.6964616460406649
0.7069646028943981
0.6984752014456778
0.7089511800401233
0.7004886801537594
0.710937833556386
0.7025020828157643
0.7129245627960151
0.7045154100752912
0.7149113671190852
0.706528662568632
0.7168982458929025
0.7085418409249405
0.7188851984917622
0.7105549457663393
0.7208722242971097
0.7125679777080427
0.7228593226971353
0.7145809373583463
0.7248464930869128
0.716593825318885
0.7268337348681848
0.7186066421845563
0.7288210474493035
0.7206193885437712
0.7308084302451376
0.7226320649783675
0.7327958826769897
0.7246446720639308
0.734783404172595
0.7266572103695814
0.7367709941657585
0.7286696804584049
0.7387586520965841
0.7306820828872126
0.7407463774112498
0.7326944182068447
0.7427341695619261
0.7347066869621738
0.7447220280066755
0.7367188896921965
0.7467099522094557
0.738731026930032
0.748697941639926
0.7407430992031852
0.7506859957735212
0.7427551070334643
0.7526741140911845
0.7447670509370425
0.7546622960794797
0.7467789314247114
0.7566505412303558
0.7487907490017378
0.7586388490412482
0.7508025041680875
0.7606272190148076
0.7528141974184542
0.762615650659037
0.7548258292422302
0.7646041434870171
0.756837400123752
0.7665926970169962
0.7588489105422487
0.7685813107722763
0.7608603609719917
0.7705699842811038
0.7628717518821488
0.7725587170766519
0.7648830837371837
0.7745475086969686
0.7668943569966143
0.7765363586848549
0.7689055721153404
0.7785252665878607
0.7709167295434208
0.7805142319581775
0.7729278297263158
0.7825032543526101
0.774938873104999
0.7844923333325448
0.7769498601158514
0.78648146846376
0.7789607911907852
0.7884706593166111
0.780971666757363
0.7904599054657074
0.7829824872387359
0.7924492064899727
0.7849932530538262
0.79443856197267
0.7870039646172772
0.7964279715012602
0.7890146223396055
0.7984174346672757
0.791025226627121
0.8004069510664868
0.7930357778821004
0.8023965202986217
0.795046276502773
0.8043861419674042
0.797056722883433
0.8063758156805368
0.799067117414389
0.8083655410496905
0.8010774604820992
0.8103553176902982
0.8030877524692117
0.8123451452216073
0.8050979937545512
0.8143350232666663
0.8071081847131978
0.8163249514522597
0.8091183257165956
0.8183149294087618
0.8111284171325082
0.8203049567702231
0.8131384593251034
0.8222950331742614
0.8151484526549917
0.8242851582620182
0.817158397479233
0.8262753316781544
0.8191682941515098
0.8282655530707638
0.821178143021968
0.8302558220913496
0.8231879444374514
0.8322461383948038
0.8251976987414108
0.8342365016392504
0.8272074062739602
0.836226911486261
0.8292170673720294
0.8382173676005226
0.8312266823692857
0.8402078696500097
0.8332362515961534
0.842198417305762
0.835245775379994
0.8441890102420874
0.8372552540450304
0.8461796481362831
0.8392646879123197
0.8481703306687803
0.8412740773000219
0.8501610575229707
0.8432834225231683
0.8521518283852704
0.8452927238939207
0.8541426429450346
0.8473019817214213
0.8561335008944868
0.8493111963119829
0.8581244019288865
0.8513203679690011
0.860115345746169
0.8533294969930668
0.8621063320471454
0.8553385836819486
0.8640973605354428
0.8573476283307061
0.8660884309174115
0.8593566312315736
0.8680795429021259
0.861365592674158
0.8700706962013586
0.8633745129453811
0.8720618905294946
0.8653833923294598
0.8740531256035903
0.8673922311080756
0.8760444011432914
0.8694010295603273
0.8780357168708119
0.8714097879626729
0.8800270725108768
0.8734185065892013
0.8820184677907377
0.8754271857113495
0.8840099024401415
0.8774358255981711
0.8860013761912416
0.8794444265162967
0.8879928887786921
0.881452988729902
0.8899844399394441
0.8834615125008017
0.8919760294128559
0.8854699980884371
0.8939676569407036
0.8874784457499643
0.8959593222669633
0.8894868557401518
0.8979510251379983
0.8914952283115856
0.8999427653023536
0.8935035637145565
0.9019345425109053
0.8955118621971075
0.9039263565166058
0.8975201240051109
0.9059182070747636
0.8995283493822749
0.9079100939427621
0.9015365385700861
0.909902016880115
0.9035446918079557
0.9118939756485208
0.9055528093331848
0.913885970011674
0.9075608913810027
0.9158779997354617
0.9095689381844994
0.9178700645876985
0.9115769499748478
0.9198621643383265
0.913584926981107
0.9218542987592355
0.9155928694303643
0.9238464676243361
0.9176007775477928
0.9258386707094471
0.9196086515564916
0.9278309077924022
0.9216164916777746
0.929823178652904
0.9236242981309332
0.9318154830725532
0.9256320711334768
0.9338078208348085
0.927639810900883
0.9358001917250883
0.9296475176469882
0.9377925955305036
0.931655191583602
0.9397850320401309
0.9336628329208315
0.9417775010447359
0.9356704418670498
0.943770002336926
0.9376780186287451
0.9457625357110175
0.9396855634106582
0.9477551009631243
0.9416930764158864
0.9497476978910832
0.943700557845718
0.9517403262943724
0.9457080078998241
0.953732985974228
0.9477154267761533
0.9557256767335295
0.9497228146709545
0.9577183983767771
0.9517301717789165
0.9597111507101846
0.953737498293051
0.9617039335414943
0.9557447944047447
0.9636967466801382
0.9577520603038602
0.9656895899370623
0.9597592961785807
0.9676824631248365
0.961766502215614
0.9696753660575345
0.9637736786001103
0.9716682985507719
0.9657808255156548
0.9736612604217403
0.9677879431443444
0.9756542514890547
0.9697950316667895
0.9776472715728964
0.9718020912620776
0.9796403204948969
0.9738091221078964
0.9816333980780937
0.9758161243803629
0.9836265041470452
0.977823098254348
0.9856196385276748
0.979830043903088
0.9876128010473753
0.981836961498561
0.9896059915349064
0.9838438512113447
0.9915992098204277
0.9858507132104761
0.9935924557354641
0.987857547663852
0.9955857291129188
0.9898643547378597
0.9975790297870021
0.9918711345976278
0.9995723575932381
0.9938778874069144
1.0015657123686275
0.9958846133282059
1.0035590939512486
0.9978913125226356
1.0055525021806115
0.9998979851500904
1.0075459368975153
1.0019046313691866
1.0095393979439078
1.0039112513372965
1.0115328851631151
1.0059178452104636
1.0135263983996405
1.0079244131436256
1.0155199374992467
1.009930955290357
1.0175135023088937
1.0119374718031242
1.019507092676759
1.0139439628331364
1.0215007084521894
1.0159504285304475
1.0234943494857316
1.0179568690439489
1.0254880156290809
1.0199632845213318
1.0274817067351723
1.0219696751091243
1.029475422657972
1.0239760409527916
1.031469163252633
1.0259823821965441
1.0334629283754726
1.0279886989835925
1.035456717883868
1.0299949914559499
1.0374505316363114
1.0320012597546089
1.0394443694924265
1.0340075040194086
1.0414382313128336
1.0360137243891796
1.043432116959303
1.038019921001577
1.045426026294666
1.0400260939933224
1.0474199591827609
1.0420322435000056
1.0494139154884794
1.0440383696562205
1.051407895077739
1.0460444725955496
1.053401897817538
1.0480505524504875
1.0553959235758135
1.0500566093526136
1.0573899722215383
1.0520626434324245
1.0593840436246316
1.0540686548194873
1.0613781376560727
1.0560746436423607
1.0633722541878017
1.0580806100286524
1.0653663930926403
1.0600865541050157
1.0673605542444842
1.0620924759971337
1.0693547375180839
1.0640983758297335
1.0713489427891534
1.0661042537266292
1.0733431699343692
1.068110109810762
1.0753374188312899
1.07011594420402
1.0773316893583724
1.0721217570275408
1.0793259813950509
1.0741275484014532
1.0813202948215674
1.0761333184450375
1.0833146295191374
1.0781390672766795
1.0853089853697402
1.080144795013877
1.0873033622563544
1.082150501773335
1.0892977600627372
1.0841561876708143
1.0912921786735195
1.0861618528212278
1.0932866179741767
1.0881674973387159
1.0952810778510518
1.0901731213365469
1.097275558191248
1.0921787249271242
1.0992700588827897
1.0941843082220355
1.1012645798144987
1.0961898713321834
1.103259120875918
1.0981954143674828
1.105253681957427
1.100200937437158
1.1072482629502773
1.1022064406496253
1.1092428637464107
1.104211924112496
1.1112374842386576
1.1062173879326311
1.1132321243204595
1.1082228322160939
1.115226783886192
1.1102282570682573
1.117221462830886
1.1122336625936096
1.1192161610503486
1.1142390488959826
1.1212108784411436
1.1162444160785014
1.12320561490059
1.1182497642434455
1.125200370326697
1.1202550934924278
1.1271951446182167
1.1222604039263597
1.1291899376746328
1.1242656956453623
1.1311847493961396
1.1262709687489516
1.1331795796836042
1.128276223335884
1.1351744284386216
1.1302814595041375
1.1371692955635468
1.1322866773511482
1.1391641809613178
1.134291876973569
1.1411590845355286
1.1362970584674206
1.1431540061906078
1.1383022219280154
1.1451489458315094
1.1403073674500148
1.147143903363909
1.1423124951274441
1.1491388786941494
1.144317605053616
1.1511338717292166
1.1463226973212415
1.1531288823767119
1.1483277720224025
1.1551239105449123
1.1503328292484303
1.157118956142751
1.1523378690901565
1.159114019079736
1.1543428916377434
1.1611090992660442
1.1563478969806913
1.1631041966124556
1.1583528852079423
1.1650993110303383
1.1603578564077517
1.167094442431698
1.1623628106678614
1.1690895907291705
1.1643677480753272
1.1710847558359654
1.1663726687166662
1.173079937665857
1.168377572677784
1.175075136133241
1.1703824600439854
1.1770703511531087
1.1723873309000301
1.1790655826409393
1.1743921853300754
1.1810608305129424
1.1763970234176766
1.1830560946857869
1.1784018452458898
1.1850513750767144
1.1804066508972098
1.187046671603522
1.182411440453523
1.189041984184594
1.1844162139961405
1.1910373127388605
1.1864209716059335
1.193032657185789
1.1884257133631158
1.1950280174453891
1.1904304393474654
1.1970233934381467
1.192435149638139
1.1990187850852227
1.1944398443138096
1.2010141923081057
1.1964445234526266
1.203009615029016
1.1984491871322047
1.20500505317053
1.2004538354295993
1.2070005066558402
1.202458468421471
1.2089959754086124
1.2044630861838732
1.210991459352979
1.206467688792371
1.2129869584136543
1.2084722763220814
1.2149824725157479
1.2104768488475803
1.21697800158497
1.2124814064429243
1.2189735455474593
1.2144859491817628
1.2209691043298507
1.2164904771371907
1.22296467785929
1.2184949903818796
1.224960266063276
1.2204994889879817
1.2269558688699698
1.2225039730271736
1.228951486207867
1.2245084425707475
1.2309471180060192
1.2265128976893944
1.2329427641938153
1.2285173384534909
1.2349384247012272
1.230521764932821
1.236934099458593
1.2325261771968614
1.2389297883967563
1.2345305753145133
1.2409254914469796
1.2365349593542905
1.2429212085410324
1.2385393293842317
1.244916939611033
1.240543685471979
1.2469126845895582
1.2425480276847518
1.2489084434096298
1.2445523560892917
1.250904216004745
1.2465566707518938
1.2529000023087589
1.2485609717385144
1.2548958022559726
1.250565259114604
1.2568916157811065
1.2525695329452524
1.2588874428193386
1.254573793295129
1.2608832833061399
1.2565780402284596
1.2628791371775547
1.2585822738090533
1.2648750043698762
1.2605864941003992
1.2668708848199315
1.2625907011654858
1.2688667784648875
1.2645948950669783
1.2708626852422613
1.2665990758670926
1.2728586050900261
1.268603243627663
1.2748545379465817
1.2706073984101953
1.2768504837505532
1.272611540275702
1.278846442441206
1.2746156692848827
1.2808424139579082
1.2766197854981036
1.2828383982406193
1.2786238889752808
1.2848343952295402
1.280627979775922
1.2868304048653427
1.2826320579592325
1.2888264270890137
1.2846361235840718
1.290822461841891
1.2866401767088673
1.2928185090657212
1.2886442173917176
1.2948145687025658
1.2906482456903845
1.2968106406948992
1.292652261662207
1.2988067249855002
1.294656265364217
1.3008028215175411
1.2966602568530596
1.3027989302345304
1.2986642361851308
1.304795051080269
1.3006682034163453
1.3067911839990058
1.3026721586023806
1.308787328935239
1.3046761017985498
1.310783485833837
1.3066800330596968
1.312779654640037
1.3086839524405487
1.3147758352993597
1.310687859995346
1.316772027757751
1.3126917557781064
1.3187682319613394
1.3146956398423912
1.3207644478566896
1.316699512241544
1.3227606753906187
1.3187033730285316
1.32475691451038
1.3207072222560146
1.3267531651633848
1.3227110599763299
1.328749427297541
1.3247148862415312
1.330745700860893
1.3267187011033217
1.332741985801915
1.3287225046131115
1.3347382820693725
1.3307262968219675
1.3367345896123208
1.332730077780735
1.3387309083801104
1.3347338475398345
1.3407272383223783
1.3367376061494893
1.342723579389126
1.3387413536595731
1.3447199315306342
1.3407450901196967
1.3467162946974254
1.3427488155791352
1.3487126688403397
1.34475253008685
1.3507090539105806
1.3467562336916388
1.3527054498595537
1.3487599264418269
1.3547018566389926
1.3507636083856307
1.3566982742008584
1.352767279570835
1.3586947024974887
1.3547709400450223
1.3606911414814553
1.3567745898555206
1.3626875911055918
1.358778229049316
1.3646840513230238
1.3607818576731199
1.3666805220871572
1.3627854757734474
1.3686770033516908
1.3647890833964087
1.37067349507055
1.366792680587999
1.3726699971979655
1.3687962673938234
1.374666509688377
1.3707998438592761
1.3766630324965754
1.3728034100294917
1.3786595655775586
1.3748069659493396
1.3806561088866012
1.3768105116633584
1.38265266237923
1.3788140472159607
1.384649226011237
1.3808175726511778
1.3866457997386719
1.3828210880128449
1.388642383517819
1.3848245933445755
1.3906389773052379
1.386828088689656
1.3926355810577014
1.3888315740912032
1.3946321947322877
1.3908350495919781
1.3966288182862985
1.3928385152346097
1.398625451677257
1.3948419710614433
1.4006220948629633
1.3968454171145506
1.4026187478014012
1.3988488534358101
1.404615410450883
1.4008522800668464
1.4066120827698398
1.402855697048995
1.4086087647170624
1.4048591044234529
1.410605456251544
1.4068625022310852
1.4126021573324523
1.4088658905126012
1.4145988679192278
1.4108692693084783
1.4165955879715046
1.4128726386588892
1.418592317449223
1.414875998603829
1.4205890563124957
1.4168793491831055
1.422585804521641
1.418882690436181
1.4245825620372827
1.420886022402496
1.4265793288201136
1.4228893451210805
1.4285761048312309
1.4248926586308133
1.4305728900317993
1.4268959629704252
1.4325696843833093
1.4288992581782238
1.4345664878474014
1.4309025442925964
1.4365633003859029
1.4329058213514827
1.4385601219609976
1.4349090893927086
1.440556952534908
1.4369123484538584
1.4425537920701441
1.4389155985723527
1.444550640529457
1.440918839785352
1.4465474978757364
1.4429220721298197
1.448544364072137
1.444925295642582
1.4505412390819394
1.446928510360146
1.4525381228687302
1.4489317163189368
1.4545350153961896
1.4509349135550658
1.4565319166282589
1.4529381021045389
1.4585288265291163
1.4549412820031247
1.460525745063051
1.4569444532863702
1.4625226721946039
1.4589476159896835
1.464519607888448
1.4609507701482387
1.4665165521095442
1.462953915797059
1.4685135048229758
1.4649570529709013
1.4705104659940265
1.466960181704397
1.472507435588182
1.4689633020320074
1.4745044135711196
1.4709664139879233
1.4765013999086394
1.4729695176062283
1.4784983945668724
1.4749726129207794
1.480495397511976
1.476975699965248
1.482492408710375
1.478978778773144
1.4844894281286536
1.480981849377823
1.4864864557335633
1.4829849118124152
1.4884834914920966
1.4849879661098486
1.49048053537134
1.4869910123029548
1.4924775873385567
1.4889940504243222
1.4944746473613129
1.4909970805063868
1.4964717154071963
1.4930001025814268
1.4984687914440353
1.4950031166815343
1.5004658754398392
1.4970061228386229
1.5024629673627508
1.4990091210844292
1.5044600671811392
1.5010121114505655
1.5064571748634639
1.5030150939684015
1.5084542903784561
1.5050180686692338
1.510451413694902
1.5070210355840947
1.5124485447818128
1.5090239947439523
1.5144456836083284
1.511026946179531
1.516442830143848
1.5130298899213908
1.5184399843578276
1.515032826000012
1.5204371462198885
1.5170357544456228
1.5224343156998923
1.5190386752883591
1.524431492767734
1.5210415885581838
1.5264286773936304
1.5230444942848493
1.5284258695478201
1.5250473924980439
1.530423069200737
1.5270502832271724
1.5324202763229875
1.529053166501667
1.5344174908853345
1.5310560423506214
1.5364147128586603
1.5330589108031056
1.5384119422139637
1.5350617718879802
1.5404091789225458
1.5370646256339506
1.5424064229557042
1.5390674720696162
1.5444036742849607
1.5410703112233781
1.5464009328819364
1.5430731431235116
1.548398198718465
1.5450759677981856
1.5503954717664468
1.5470787852753838
1.552392751997955
1.5490815955829205
1.5543900393852925
1.5510843987484793
1.5563873339007785
1.5530871947996472
1.5583846355169093
1.5550899837638363
1.5603819442063984
1.5570927656683247
1.5623792599420039
1.5590955405402138
1.564376582696685
1.561098308406571
1.566373912443445
1.563101069294169
1.568371249155581
1.5651038232297798
1.5703685928064095
1.5671065702399896
1.5723659433694182
1.5691093103512035
1.5743633008181968
1.5711120435897767
1.5763606651265492
1.5731147699818824
1.5783580362682994
1.5751174895535698
1.580355414217549
1.5771202023307314
1.582352798948358
1.5791229083391927
1.5843501904350579
1.5811256076045819
1.586347588652042
1.5831283001523857
1.5883449935738734
1.5851309860080742
1.5903424051751889
1.5871336651968788
1.5923398234308241
1.5891363377439458
1.5943372483156346
1.5911390036742805
1.5963346798047335
1.5931416630128241
1.598332117873257
1.5951443157842642
1.6003295624965153
1.5971469620132486
1.6023270136499463
1.5991496017243467
1.604324471309052
1.601152234941937
1.606321935449522
1.6031548616902755
1.608319406047159
1.6051574819935381
1.6103168830778365
1.6071600958757453
1.6123143665176074
1.6091627033607976
1.6143118563426027
1.611165304472513
1.6163093525290828
1.613167899234569
1.6183068550534447
1.615170487670516
1.6203043638922017
1.6171730698037614
1.6223018790219117
1.61917564565771
1.624299400419355
1.6211782152555179
1.6262969280613417
1.6231807786202952
1.6282944619248523
1.6251833357750274
1.6302920019869684
1.627185886742615
1.6322895482248585
1.6291884315457672
1.6342871006158324
1.6311909702071803
1.6362846591372695
1.6331935027493543
1.638282223766668
1.635196029194701
1.6402797944817382
1.637198549565622
1.6422773712601584
1.639201063884263
1.6442749540797874
1.6412035721727447
1.6462725429185259
1.6432060744530383
1.6482701377545328
1.6452085707470483
1.6502677385659008
1.6472110610765591
1.6522653453309266
1.6492135454632275
1.6542629580279862
1.6512160239286415
1.65626057663558
1.653218496494251
1.65825820113226
1.6552209631814514
1.6602558314967046
1.657223424011471
1.6622534677077627
1.6592258790054462
1.66425110974428
1.661228328184483
1.6662487575852962
1.6632307715695034
1.668246411209868
1.6652332091813715
1.6702440705972084
1.6672356410408429
1.6722417357265755
1.669238067168571
1.6742394065774346
1.6712404875851152
1.6762370831292297
1.673242902310898
1.6782347653615846
1.6752453113663086
1.680232453254155
1.677247714771624
1.68223014678675
1.6792501125469965
1.6842278459392526
1.6812525047124738
1.6862255506916164
1.6832548912880527
1.6882232610239318
1.68525727229363
1.6902209769163798
1.6872596477489568
1.6922186983491752
1.6892620176737292
1.6942164253027427
1.6912643820875854
1.696214157757441
1.6932667410099747
1.6982118956939043
1.6952690944603572
1.7002096390926995
1.6972714424580497
1.7022073879345476
1.6992737850222606
1.70420514220031
1.701276122172157
1.7062029018708393
1.703278453926812
1.708200666927151
1.7052807803050978
1.7101984373503105
1.707283101325983
1.7121962131215136
1.7092854170081988
1.714193994222005
1.7112877273704836
1.7161917806331097
1.7132900324314566
1.7181895723363039
1.7152923322095717
1.720187369313065
1.7172946267233347
1.7221851715450214
1.7192969159910654
1.724182979013861
1.7212992000310616
1.7261807917013599
1.7233014788614478
1.7281786095893525
1.725303752500385
1.7301764326598308
1.7273060209658577
1.7321742608947743
1.7293082842757834
1.7341720942763101
1.7313105424480544
1.736169932786638
1.7333127955004168
1.7381677764080288
1.7353150434505187
1.7401656251228397
1.7373172863160018
1.7421634789134766
1.739319524114417
1.7441613377625202
1.7413217568631252
1.7461592016525143
1.743323984579567
1.7481570705661729
1.7453262072809606
1.7501549444862388
1.7473284249845351
1.752152823395554
1.7493306377074558
1.7541507072770126
1.7513328454667174
1.756148596113613
1.7533350482792982
1.7581464898884722
1.755337246162093
1.7601443885846517
1.7573394391319261
1.762142292185434
1.7593416272055113
1.7641402006741134
1.7613438103995511
1.7661381140340595
1.763345988730605
1.7681360322487123
1.765348162215187
1.7701339553016158
1.76735033086973
1.772131883176339
1.7693524947106039
1.7741298158566188
1.7713546537541067
1.7761277533261421
1.7733568080164253
1.7781256955687663
1.7753589575137345
1.7801236425683389
1.777361102262113
1.782121594308868
1.7793632422775123
1.7841195507743717
1.7813653775758922
1.7861175119489683
1.7833675081730722
1.7881154778168624
1.7853696340848901
1.790113448362277
1.7873717553270292
1.7921114235695268
1.7893738719151278
1.794109403423008
1.7913759838647667
1.7961073879071865
1.7933780911914479
1.7981053770066178
1.7953801939105793
1.8001033707058756
1.7973822920375715
1.802101368989647
1.7993843855877327
1.8040993718426415
1.801386474576237
1.8060973792496506
1.8033885590182759
1.8080953911955733
1.8053906389289522
1.8100934076653863
1.807392714323277
1.8120914286440273
1.8093947852162167
1.8140894541165926
1.8113968516226875
1.8160874840682173
1.8133989135575068
1.818085518484116
1.8154009710353975
1.8200835573495353
1.8174030240711332
1.8220816006498202
1.8194050726793278
1.8240796483703723
1.8214071168745378
1.8260777004966364
1.8234091566712394
1.8280757570141513
1.8254111920839262
1.8300738179085
1.8274132231269489
1.8320718831653295
1.8294152498146645
1.8340699527703332
1.8314172721612827
1.8360680267093443
1.8334192901810462
1.83806610496816
1.835421303888036
1.840064187532668
1.8374233132963425
1.842062274388853
1.8394253184199694
1.8440603655227377
1.8414273192728974
1.8460584609203805
1.8434293158689776
1.8480565605679478
1.8454313082220573
1.8500546644516074
1.847433296345878
1.852052772557705
1.8494352802541876
1.8540508848724497
1.851437259960587
1.8560490013822992
1.8534392354787006
1.8580471220736696
1.855441206822043
1.8600452469330606
1.8574431740041157
1.8620433759470314
1.8594451370383132
1.8640415091021783
1.8614470959379688
1.8660396463851805
1.8634490507164216
1.8680377877827747
1.8654510013869157
1.87003593328175
1.8674529479626076
1.8720340828689488
1.8694548904566308
1.874032236531243
1.8714568288821065
1.8760303942556027
1.8734587632519986
1.878028556029013
1.8754606935792921
1.880026721838614
1.8774626198769089
1.8820248916714395
1.8794645421576652
1.884023065514724
1.8814664604343925
1.886021243355637
1.8834683747198184
1.8880194251815163
1.8854702850266303
1.890017610979661
1.887472191367495
1.8920158007374877
1.8894740937549572
1.894013994442436
1.8914759922015851
1.8960121920819777
1.893477886719802
1.8980103936437132
1.8954797773220657
1.9000085991151952
1.8974816640207537
1.9020068084840847
1.899483546828182
1.9040050217381117
1.9014854257565987
1.9060032388650083
1.903487300818232
1.9080014598526127
1.9054891720252567
1.9099996846887635
1.907491039389781
1.9119979133613931
1.9094929029238534
1.913996145858421
1.9114947626395078
1.9159943821679106
1.913496618548714
1.9179926222778796
1.915498470663352
1.9199908661764817
1.9175003189953301
1.9219891138518574
1.919502163556425
1.9239873652921868
1.9215040043583889
1.9259856204857786
1.9235058414129744
1.9279838794209367
1.9255076747318394
1.9299821420860035
1.9275095043265962
1.9319804084693482
1.9295113302088192
1.933978678559506
1.9315131523900135
1.9359769523449146
1.9335149708816912
1.937975229814149
1.93551678569524
1.939973510955781
1.9375185968420572
1.94197179575846
1.9395204043335077
1.943970084210926
1.9415222081808197
1.945968376301843
1.9435240083952827
1.9479666720200262
1.9455258049880781
1.9499649713543268
1.9475275979703328
1.9519632742935764
1.9495293873531447
1.9539615808267294
1.9515311731476255
1.9559598909427263
1.9535329553647516
1.9579582046305901
1.955534734015464
1.9599565218793669
1.9575365091107304
1.9619548426781823
1.959538280661397
1.9639531670161465
1.9615400486783094
1.965951494882451
1.9635418131722622
1.967949826266374
1.965543574154019
1.9699481611571679
1.9675453316342333
1.9719464995441065
1.9695470856235915
1.9739448414166203
1.9715488361326918
1.9759431867640684
1.9735505831721551
1.977941535575903
1.9755523267524526
1.9799398878416836
1.9775540668840703
1.9819382435508646
1.9795558035775136
1.983936602693053
1.9815575368431237
1.9859349652578677
1.9835592666912805
1.9879333312349659
1.9855609931323208
1.9899317006140524
1.9875627161765015
1.9919300733848737
1.989564435834081
1.9939284495372034
1.9915661521152124
1.9959268290608996
1.993567865030066
1.9979252119457804
1.9955695745887811
1.999923598181773
1.9975712808014077
2.001921987758853
1.9995729836779825
2.0039203806669756
2.001574683228495
2.005918776896176
2.0035763794628942
2.007917176436506
2.0055780723911036
2.0099155792781147
2.007579762022984
2.0119139854111063
2.0095814483683947
2.0139123948257036
2.011583131437096
2.0159108075121215
2.0135848112388333
2.017909223460581
2.0155864877834055
2.019907642661413
2.017588161080401
2.02190606510499
2.019589831139497
2.0239044907816224
2.0215914979703222
2.0259029196818106
2.023593161582401
2.027901351795946
2.025594821985251
2.029899787114537
2.0275964791883836
2.0318982256281384
2.0295981332012616
2.033896667327274
2.0315997840332924
2.0358951122025455
2.033601431693853
2.037893560244641
2.0356030761922623
2.0398920114442
2.037604717537883
2.0418904657919668
2.0396063557398776
2.043888923278691
2.0416079908075786
2.0458873838951313
2.0436096227501364
2.047885847632116
2.045611251576697
2.049884314480501
2.047612877296472
2.0518827844312093
2.0496144999184245
2.0538812574751346
2.0516161194516727
2.0558797336032724
2.053617735905233
2.057878212806611
2.0556193492880612
2.059876695076183
2.057620959609151
2.061875180403068
2.0596225668773713
2.063873668778347
2.0616241711016166
2.065872160193176
2.0636257722907234
2.0678706546387757
2.0656273704535213
2.069869152106237
2.0676289655987614
2.0718676525869157
2.0696305577351994
2.073866156072039
2.0716321468715417
2.0758646625529025
2.073633733016446
2.0778631720208725
2.0756353161785834
2.0798616844673257
2.0776368963665446
2.0818601998836432
2.0796384735888895
2.083858718261304
2.0816400478541772
2.0858572395917894
2.0836416191709026
2.0878557638665423
2.0856431875475767
2.0898542910771742
2.087644752992602
2.091852821215207
2.089646315514418
2.093851354272277
2.0916478751213825
2.09584989024002
2.093649431821842
2.0978484291101025
2.095650985624137
2.0998469708742125
2.0976525365365126
2.101845515524095
2.099654084567274
2.1038440630515036
2.1016556297245943
2.1058426134482167
2.103657172016694
2.1078411667060966
2.105658711451716
2.1098397228169854
2.107660248037758
2.1118382817727746
2.1096617817829726
2.113836843565383
2.11166331269541
2.1158354081867556
2.1136648407830827
2.11783397562887
2.115666366054016
2.1198325458837286
2.117667888516153
2.1218311189433794
2.119669408177487
2.123829694799922
2.1216709250459083
2.1258282734454204
2.1236724391292725
2.1278268548720254
2.1256739504354933
2.1298254390718707
2.1276754589723694
2.1318240260371315
2.1296769647476954
2.133822615760103
2.1316784677692255
2.1358212082329664
2.1336799680447482
2.1378198034480302
2.1356814655818783
2.1398184013975814
2.137682960388374
2.141817002073941
2.139684452471874
2.143815605469495
2.1416859418399925
2.1458142115766248
2.1436874285003436
2.1478128203877547
2.145688912460442
2.149811431895363
2.147690393727868
2.1518100460918688
2.1496918723101306
2.1538086629698094
2.151693348214693
2.1558072825216805
2.1536948214490286
2.1578059047400897
2.1556962920205476
2.159804529617627
2.1576977599366707
2.1618031571468648
2.1596992252047427
2.1638017873204696
2.1617006878321234
2.165800420131098
2.1637021478261333
2.1677990555714555
2.1657036051940577
2.1697976936342593
2.167705059943159
2.171796334312275
2.169706512080678
2.173794977598264
2.171707961613816
2.175793623485035
2.1737094085497715
2.1777922719653957
2.1757108528956755
2.17979092303224
2.1777122946586993
2.1817895766784496
2.1797137338458885
2.183788232896886
2.1817151704643933
2.1857868916805216
2.1837166045212095
2.187785553022314
2.1857180360234145
2.189784216915237
2.1877194649779352
2.19178288335229
2.189720891391827
2.1937815523265676
2.191722315271994
2.195780223831066
2.193723736625376
2.197778897858905
2.1957251554588697
2.1997775744031953
2.197726571779338
2.201776253457071
2.199727985593666
2.203774935013672
2.201729396908634
2.2057736190662465
2.203730805731055
2.2077723056079672
2.205732212067733
2.2097709946320565
2.207733615925391
2.211769686131797
2.2097350173107775
2.2137683801004737
2.21173641623055
2.215767076531386
2.213737812691439
2.2177657754178624
2.2157392067000607
2.219764476753301
2.217740598263059
2.2217631805310414
2.219741987387037
2.22376188674452
2.221743374078595
2.2257605953871518
2.2237447583442735
2.227759306452343
2.225746140190603
2.229758019933666
2.2277475196241183
2.2317567358245687
2.2297488966512566
2.2337554541185694
2.2317502712785378
2.2357541748092298
2.233751643512381
2.2377528978901187
2.235753013359195
2.239751623354802
2.237754380825401
2.2417503511969357
2.2397557459173765
2.2437490814101477
2.241757108641425
2.245747813988073
2.24375846900391
2.2477465489244257
2.245759827011134
2.249745286212891
2.2477611826693575
2.251744025847223
2.2497625359848916
2.2537427678211435
2.251763886963904
2.255741512128424
2.253765235612669
2.257740258762895
2.255766581937356
2.259739007718356
2.2577679259441377
2.261737758988633
2.25976926763915
2.263736512567598
2.2617706070285637
2.2657352684491245
2.263771944118429
2.2677340266271324
2.2657732789148812
2.2697327870955553
2.267774611423957
2.2717315498483077
2.2697759416517367
2.273730314879373
2.271777269604169
2.275729082182732
2.2737785952873275
2.2777278517524246
2.275779918707119
2.2797266235824285
2.277781239869569
2.2817253976668876
2.279782558780578
2.2837241739998015
2.2817838754460698
2.285722952575264
2.283785189871935
2.2877217333873965
2.2857865020640684
2.289720516430365
2.2877878120282915
2.291719301698304
2.289789119770463
2.2937180891854005
2.291790425296408
2.295716878885824
2.2937917286118776
2.297715670793816
2.295793029722685
2.299714464903633
2.297794328634552
2.3017132612094997
2.299795625353213
2.303712059705675
2.3017969198844224
2.305710860386473
2.303798212233825
2.3077096632462664
2.3057995024071376
2.3097084682792977
2.3078007904099715
2.311707275479986
2.3098020762479856
2.3137060848427096
2.3118033599267918
2.315704896361839
2.313804641451988
2.3177037100317652
2.3158059208291357
2.319702525846969
2.317807198063782
2.3217013438018976
2.319808473161509
2.3237001638909804
2.3218097461278107
2.32569898610875
2.3238110169681634
2.327697810449703
2.325812285688089
2.3296966369083907
2.327813552293026
2.3316954654793043
2.3298148167884194
2.333694296157072
2.331816079179681
2.335693128936236
2.333817339472247
2.3376919638114173
2.335818597671494
2.3396908007772437
2.3378198537827775
2.3416896398283433
2.339821107811453
2.3436884809593965
2.341822359762847
2.34568732416504
2.343823609642305
2.3476861694400215
2.345824857455076
2.3496850167789702
2.3478261032064918
2.3516838661766997
2.349827346901775
2.3536827176279482
2.351828588546157
2.355681571127451
2.3538298281448964
2.3576804266700124
2.3558310657031485
2.3596792842504315
2.3578323012261864
2.3616781438635144
2.3598335347191153
2.363677005504092
2.361834766187108
2.365675869167095
2.3638359956352786
2.367674734847282
2.3658372230688096
2.369673602539622
2.3678384484927166
2.3716724722390174
2.369839671912149
2.373671343940344
2.3718408933321373
2.3756702176385596
2.37384211275777
2.3776690933286733
2.375843330194046
2.3796679710056012
2.3778445456459814
2.381666850664371
2.3798457591185893
2.38366573229996
2.3818469706168592
2.3856646159074417
2.3838481801457356
2.3876635014817706
2.3858493877101896
2.3896623890181017
2.3878505933151524
2.3916612785114686
2.389851796965521
2.3936601699569677
2.391852998666203
2.395659063349696
2.3938541984220842
2.3976579586848175
2.3958553962380496
2.399656855957409
2.3978565921189188
2.401655755162691
2.399857786069549
2.4036546562957892
2.4018589780947517
2.405653559351914
2.403860168199316
2.407652464326281
2.405861356388055
2.4096513712140846
2.4078625426657183
2.4116502800105803
2.4098637270370773
2.413649190711017
2.4118649095068543
2.4156481033106876
2.4138660900797904
2.4176470178048053
2.415867268760577
2.4196459341887753
2.4178684455538964
2.4216448524578205
2.4198696204644636
2.4236437726073063
2.4218707934969106
2.4256426946325838
2.423871964655898
2.4276416185290195
2.425873133946042
2.429640544291965
2.427874301371985
2.43163947191683
2.429875466938283
2.4336384013990298
2.431876630649545
2.4356373327339798
2.433877792510351
2.4376362659171185
2.435878952525252
2.439635200943872
2.4378801106988064
2.4416341378097473
2.439881267035466
2.443633076510199
2.441882421539807
2.4456320170407584
2.443883574216327
2.4476309593968977
2.4458847250694697
2.4496299035741758
2.4478858741037306
2.4516288495681224
2.449887021323544
2.453627797374256
2.4518881667333625
2.4556267469881936
2.453889310337616
2.4576256984055003
2.4558904521406797
2.4596246516217817
2.4578915921469537
2.4616236066326653
2.459892730360844
2.4636225634337587
2.461893866786691
2.465621522020704
2.4638950014288787
2.4676204823891634
2.4658961342917154
2.4696194445347905
2.4678972653795315
2.4716184084532813
2.4698983946966084
2.4736173741403498
2.4718995222472846
2.4756163415916963
2.4739006480358343
2.477615310803029
2.475901772066498
2.4796142817701115
2.47790289434356
2.4816132544886758
2.4799040148712526
2.4836122289545046
2.4819051336537994
2.485611205163376
2.483906250695401
2.4876101831110735
2.4859073660002604
2.4896091627934354
2.4879084795725626
2.4916081442062485
2.489909591416511
2.493607127345356
2.4919107015362254
2.4956061122066107
2.49391180993589
2.4976050987858494
2.4959129166195817
2.499604087078987
2.4979140215914533
2.501603077081885
2.49991512485561
2.5036020687904763
2.501916226416163
2.505601062200642
2.5039173262771324
2.5076000573083133
2.505918424442654
2.5095990541094078
2.507919520916751
2.511598052599938
2.5099206157034395
2.5135970527758422
2.5119217088068027
2.5155960546330802
2.5139228002308034
2.5175950581676787
2.5159238899794563
2.51959406337559
2.517924978056791
2.5215930702528557
2.5199260644667385
2.5235920787955304
2.5219271492132953
2.5255910889996254
2.5239282323003542
2.527590100861205
2.5259293137319134
2.5295891143763387
2.5279303935119044
2.531588129541119
2.5299314716441867
2.5335871463515884
2.531932548132714
2.535586164803918
2.533933622981357
2.5375851848941826
2.5359346961939977
2.539584206618521
2.5379357677745
2.541583229973072
2.539936837726674
2.5435822549539777
2.5419379060544363
2.5455812815574324
2.54393897276157
2.5475803097795904
2.5459400378518984
2.549579339616653
2.5479411013292337
2.5515783710648092
2.5499421631973607
2.553577404120276
2.5519432234600585
2.5555764387792896
2.5539442821211074
2.557575475038059
2.555945339184279
2.559574512892886
2.557946394653266
2.5615735523399463
2.5599474485318745
2.563572593375597
2.5619485008237435
2.5655716359960863
2.563949551532647
2.5675706801977114
2.565950600662252
2.5695697259767747
2.567951648216271
2.5715687733295765
2.56995269419838
2.5735678222524823
2.571953738612217
2.575566872741815
2.5739547814614414
2.57756592479393
2.5759558227497132
2.579564978405181
2.5779568624806695
2.5815640335719676
2.5799579006578974
2.5835630902906583
2.5819589372850156
2.5855621485576674
2.5839599723656197
2.58756120836937
2.5859610059033327
2.589560269722194
2.5879620379016868
2.591559332612601
2.589963068364256
2.5935583970369995
2.5919640972945914
2.595557462991871
2.5939651246962225
2.5975565304736565
2.5959661505727247
2.599555599478849
2.597967174927569
2.60155467000393
2.5999681977643103
2.60355374204535
2.6019692190863988
2.605552815599671
2.603970238897346
2.607551890663393
2.6059712572006273
2.6095509672330652
2.607972273999708
2.6115500453051967
2.609973289298047
2.6135491248763523
2.6119743030991
2.6155482059430826
2.6139753154062757
2.617547288501951
2.615976326223041
2.6195463725495536
2.617977335552761
2.6215454580825037
2.6199783433988375
2.6235445450973676
2.621979349764709
2.6255436335907616
2.6239803546537144
2.6275427235593147
2.625981358069259
2.6295418149996728
2.62798236001468
2.631540907908437
2.629983360493357
2.6335400022823228
2.631984359508601
2.635539098117952
2.6339853570637555
2.6375381954120236
2.6359863531621386
2.6395372941611903
2.6379873478070714
2.641536394362144
2.6399883410018505
2.6435354960116375
2.6419893327497705
2.645534599106345
2.6439903230540933
2.6475337036429947
2.6459913119181167
2.649532809618328
2.6479922993450633
2.6515319170290805
2.6499932853382604
2.6535310258720073
2.651994269900839
2.6555301361438852
2.653995253036126
2.65752924784147
2.6559962347472985
2.6595283609615503
2.657997215037593
2.661527475500929
2.659998193910196
2.663526591456385
2.6619991713683007
2.6655257088247497
2.6640001474151105
2.6675248276028283
2.666001122053756
2.669523947787459
2.668002095287436
2.6715230693754886
2.670003067119324
2.673522192363776
2.6720040375525307
2.6755213167491396
2.674005006590178
2.6775204425284893
2.6760059742354407
2.679519569698675
2.678006940491396
2.681518698256632
2.6800079053611863
2.6835178281991774
2.68200886884788
2.6855169595232598
2.684009830954602
2.687516092225803
2.6860107916843816
2.68951522630374
2.688011751040329
2.6915143617539825
2.690012709025518
2.693513498573476
2.6920136656429343
2.6955126367591817
2.694014620895721
2.6975117763080196
2.6960155747868413
2.699510917216998
2.698016527319319
2.701510059483092
2.700017478496228
2.703509203103302
2.702018428320511
2.705508348074595
2.7040193767952125
2.7075074943939814
2.706020323923306
2.7095066420584923
2.7080212697077597
2.711505791065132
2.710022214151584
2.7135049414109393
2.7120231572577067
2.71550409309298
2.714024099029123
2.717503246108244
2.7160250394687306
2.719502400453838
2.7180259785794916
2.7215015561268103
2.7200269163643376
2.7235007131242335
2.722027852826178
2.7254998714432177
2.724028787967938
2.7274990310808396
2.7260297217925156
2.7294981920341836
2.7280306543028097
2.731497354300351
2.7300315855016923
2.7334965178765143
2.7320325153920795
2.7354956827597388
2.7340334439767773
2.7374948489471858
2.736034371258701
2.7394940164360206
2.7380352972406867
2.741493185223346
2.7400362219255667
2.7434923553063486
2.742037145316196
2.7454915266822
2.744038067415408
2.747490699348074
2.746038988226003
2.74948987330116
2.7480399077507847
2.7514890485386134
2.750040825992577
2.753488225057693
2.752041742954202
2.7554874028555543
2.7540426586383693
2.7574865819294536
2.7560435730479176
2.759485762276597
2.758044486185626
2.761484943894186
2.7600453980542023
2.7634841267795496
2.7620463086564397
2.7654833109298704
2.7640472179950986
2.7674824963423963
2.766048126072886
2.7694816830144133
2.7680490328925473
2.771480870943224
2.770049938456808
2.7734800601260643
2.772050842768358
2.775479250560226
2.774051745829967
2.7774784422430296
2.7760526476442693
2.7794776351717636
2.7780535482139905
2.7814768293437617
2.780054447541814
2.783476024756313
2.7820553456303707
2.7854752214067555
2.7840562424824267
2.7874744192924155
2.786057138100539
2.78947361841066
2.7880580324874273
2.79147281875882
2.790058925645706
2.793472020334265
2.7920598175780382
2.795471223134352
2.7940607082870312
2.797470427156467
2.796061597775304
2.7994696323979507
2.798062486045503
2.8014688388562528
2.8000633731002145
2.8034680465287125
2.8020642589420532
2.805467255412767
2.804065143573595
2.8074664655058195
2.8060660269974282
2.809465676805276
2.808066909216153
2.8114648893085623
2.810067790232315
2.813464103013107
2.8120686700485034
2.8154633179163904
2.814069548667234
2.817462534015815
2.8160704260911174
2.8194617513088596
2.81807130232263
2.8214609697929562
2.8200721773643567
2.8234601894656053
2.822073051218807
2.8254594103242674
2.8240739238884927
2.8274586323664117
2.8260747953759444
2.8294578555895615
2.828075665683657
2.8314570799912007
2.8300765348141286
2.8334563055688218
2.832077402769879
2.8354555323199415
2.8340782695533524
2.8374547602420828
2.8360791351670462
2.8394539893327604
2.83807999961344
2.8414532195895412
2.840080862894972
2.8434524510099086
2.8420817250141166
2.845451683591447
2.844082585973334
2.847450917331689
2.846083445775068
2.8494501522282083
2.848084304421734
2.851449388278579
2.850085161915758
2.8534486254803593
2.852086018259604
2.8554478638311394
2.8540868734556613
2.8574471033284943
2.8560877275063428
2.8594463439700113
2.8580885804140164
2.8614455857533088
2.8600894321811454
2.8634448286760166
2.862090282810089
2.865444072735693
2.864091132303199
2.867443317930006
2.8660919806628837
2.869442564256534
2.8680928278915285
2.8714418117129794
2.8700936739914584
2.8734410602969054
2.872094518965053
2.8754403100060353
2.874095362814654
2.8774395608379777
2.8760962055425954
2.8794388127903745
2.878097047151214
2.881438065860953
2.8800978876428815
2.8834373200473222
2.8820987270198812
2.885436575347198
2.8840995652845463
2.887435831758261
2.886100402439177
2.8894350892781975
2.8881012384860667
2.891434347904728
2.89010207342752
2.89343360763554
2.8921029072658584
2.8954328684683226
2.894103740003322
2.8974321304008246
2.896104571642252
2.8994313934307634
2.898105402184845
2.90143065755587
2.9001062316334316
2.9034299227738845
2.9021070599902283
2.90542918908253
2.904107887257515
2.9074284564795816
2.9061087134375154
2.909427724962782
2.9081095385324938
2.911426994529883
2.910110362544701
2.9134262651786904
2.9121111854763186
2.915425536906918
2.9141120073295994
2.917424809712376
2.9161128281067636
2.919424083592856
2.9181136478100096
2.921423358546167
2.920114466441566
2.9234226345700716
2.922115284003575
2.9254219116623936
2.9241161004982916
2.9274211898209255
2.9261169159278864
2.929420469043503
2.928117730294502
2.9314197493279317
2.9301185436003716
2.9334190306720567
2.9321193558476164
2.935418313073717
2.934120167038453
2.9374175965307248
2.936120977174986
2.9394168810409407
2.9381217862593925
2.9414161666022087
2.940122594293784
2.943415453212408
2.9421234012803685
2.945414740869366
2.944124207221218
2.9474140295710085
2.9461250121184954
2.9494133193151373
2.948125815974286
2.9514126100996942
2.9501266187907444
2.9534119019225322
2.9521274205699712
2.955411194781538
2.9541282213140625
2.957410488674631
2.9561290210251308
2.9594097835997433
2.9581298197052406
2.9614090795547208
2.960130617356525
2.963408376537495
2.9621314139810218
2.965407674546006
2.964132209580835
2.9674069735781794
2.966133004158039
2.9694062736319258
2.96813379771469
2.971405574705193
2.970134590252852
2.9734048767959464
2.9721353817745517
2.9754041799020974
2.9741361722818604
2.9774034840215995
2.97613696177685
2.979402789152435
2.9781377502615225
2.981402095292576
2.980138537737932
2.983401402439972
2.982139324208083
2.9854007105925935
2.9841401096739926
2.9874000197484736
2.9861408941377072
2.9893993299055173
2.9881416776012135
2.991398641061765
2.9901424600665276
2.993397953215206
2.992143241535658
2.9953972663638586
2.994144022010578
2.997396580505672
2.9961448014932905
2.9993958956387337
2.9981455799857883
3.0013952117610536
3.000146357490036
3.00339452887061
3.0021471340080113
3.0053938469654415
3.0041479095416683
3.007393166043619
3.0061486840929854
3.009392486103131
3.008149457663947
3.011391807142071
3.0101502302564556
3.013391129158468
3.0121510018724704
3.015390452150361
3.0141517725139435
3.0173897761158486
3.016152542182826
3.0193891010529454
3.0181533108810283
3.0213884269597657
3.0201540786105054
3.0233877538343887
3.022154845373135
3.025387081674847
3.024155611170859
3.0273864104792683
3.0261563760056007
3.0293857402457283
3.0281571398792373
3.0313850709723384
3.0301579027937118
3.0333844026571715
3.0321586647508814
3.0353837352983493
3.0341594257526427
3.037383068893968
3.0361601858009295
3.0393824034421963
3.0381609448975335
3.0413817389410807
3.040161703044427
3.043381075388803
3.0421624602434187
3.045380412783456
3.044163216496387
3.047379751123206
3.046163971805208
3.049379090406168
3.0481647261717297
3.051378430630507
3.050165479597832
3.053377771794376
3.052166232085319
3.0553771138959007
3.054166983636044
3.057376456933275
3.0561677342518476
3.05937580090466
3.0581684839345726
3.0613751458082046
3.0601692326860603
3.06337449164209
3.0621699805081044
3.0653738384044704
3.0641707274025247
3.0673731860936013
3.0661714733711554
3.0693725347076253
3.0681722184157936
3.0713718842447006
3.070172962538251
3.0733712347031066
3.0721737057403042
3.0753705860809597
3.074174448023774
3.077369938376532
3.07617518939042
3.079369291588026
3.0781759298420894
3.0813686457136225
3.0801766693804997
3.083368000751586
3.0821774080074302
3.085367356700111
3.0841781457247057
3.087366713557447
3.086178882534055
3.089366071321789
3.0881796184372474
3.0913654299914644
3.090180353436027
3.0933647895646224
3.092181087532165
3.095364150039575
3.0941818207274028
3.097363511414552
3.096182553023487
3.0993628736877965
3.0981832844221846
3.1013622368575895
3.1001840149251687
3.1033616009221903
3.1021847445342305
3.105360965879881
3.1041854732510523
3.1073603317289407
3.1061862010773877
3.1093596984676135
3.1081869280149226
3.1113590660942303
3.1101876540654065
3.113358434607047
3.112188379230534
3.1153578040043897
3.1141891035119986
3.117357174284519
3.1161898269115373
3.1193565454457652
3.11819054943077
3.121355917486425
3.120191271071478
3.123355290404776
3.122191991835281
3.125354664199198
3.124192711723884
3.1273540388679795
3.126193430738993
3.1293534144094246
3.1281941488822307
3.131352790821889
3.130194866155309
3.133352168103705
3.1321955825598553
3.1353515462531836
3.134196298097582
3.1373509252686893
3.1361970127701
3.139350305148564
3.138197726579077
3.1413496858911496
3.1401984395261757
3.143349067494807
3.1421991516130237
3.1453484499578725
3.1441998628412575
3.147347833278743
3.14620057321252
3.149347217455755
3.148201282728452
3.1513466024872807
3.1502019913906794
3.1533459883717376
3.152202699200834
3.1553453751074465
3.1542034061605024
3.157344762692826
3.156204112271307
3.1593441511262377
3.158204817534895
3.1613435404060755
3.1602055219528284
3.163342930530772
3.16220622552675
3.1653423214986938
3.164206928258226
3.167341713308264
3.166207630148881
3.169341105957816
3.168208331200287
3.171340499445871
3.17020903141404
3.1733398937707706
3.172209730791712
3.175339288930943
3.174210429334874
3.1773386849248486
3.1762111270451365
3.1793380817508843
3.1782118239240424
3.1813374794074756
3.180212519973174
3.1833368778930615
3.1822132151940754
3.1853362772060914
3.1842139095883235
3.187335677344989
3.186214603157481
3.18933507830825
3.1882152959030585
3.191334480094272
3.190215987826647
3.1933338827015283
3.192216678929769
3.195333286128467
3.194217369213957
3.197332690373565
3.1962180586807727
3.1993320954352815
3.198218747331739
3.201331501312092
3.2002194351683766
3.2033309080024663
3.2022201221922018
3.20533031550488
3.204220808404764
3.2073297238178173
3.2062214938075604
3.209329132939744
3.2082221784020892
3.2113285428691616
3.210222862189907
3.2133279536045984
3.212223545172458
3.2153273651445002
3.2142242273513153
3.2173267774873797
3.216224908727895
3.21932619063176
3.218225589303754
3.2213256045761294
3.2202262690803467
3.223325019319001
3.2222269480592
3.225324434858903
3.224227626241763
3.2273238511943387
3.2262283036295325
3.229323268323851
3.2282289802239768
3.2313226862459477
3.2302296560265256
3.2333221049591265
3.232230331038723
3.2353215244620026
3.2342310052620205
3.2373209447530513
3.236231678697837
3.2393203658308076
3.238232351347667
3.241319787693875
3.2402330232129444
3.243319210340729
3.2422336942951278
3.245318633769964
3.2442343645956653
3.247318057980116
3.246235034115999
3.2493174829697637
3.248235702857564
3.251316908737469
3.250236370821815
3.2533163352817565
3.2522370380101413
3.255315762601244
3.254237704424019
3.2573151906945
3.256238370064869
3.259314619560064
3.2582390349340686
3.2613140491965438
3.260239699033089
3.2633134796024983
3.262240362363311
3.2653129107765446
3.264241024926186
3.2673123427172572
3.266241686723077
3.269311775423221
3.2682423477554137
3.2713112088930587
3.2702430080245968
3.273310643125347
3.2722436675320106
3.275310078118699
3.27424432627908
3.277309513871721
3.276244984267145
3.2793089503830206
3.2782456414976635
3.281308387651189
3.280246297971947
3.28330782567491
3.282246953691408
3.2853072644527526
3.2842476086574544
3.2873067039833312
3.2862482628714194
3.289306144265298
3.288248916334685
3.2913055852972914
3.2902495690486275
3.2933050270779276
3.2922502210145947
3.295304469605825
3.2942508722339556
3.297303912879658
3.2962515227080873
3.2993033568980725
3.298252172438313
3.301302801659692
3.300252821425995
3.303302247163213
3.3022534696725043
3.305301693407191
3.3042541171791453
3.3073011403903982
3.306254763947297
3.309300588111415
3.3082554099782557
3.3113000365689507
3.310256055273389
3.3132994857616462
3.3122566998340326
3.3152989356881726
3.3142573436614953
3.317298386347207
3.3162579867571034
3.319297837737435
3.3182586291222016
3.3212972898575344
3.3202592707580743
3.323296742706183
3.322259911666065
3.3252961962820655
3.3242605518474746
3.327295650583865
3.326261191303621
3.3292951056102846
3.32826183003577
3.331294561360012
3.330262468045301
3.3332940178317596
3.332263105333457
3.3352934750242205
3.33426374190155
3.337292932936088
3.3362643777508594
3.339292391566074
3.338265012882698
3.341291850912901
3.34026564729835
3.343291310975288
3.3422662809991004
3.345290771751942
3.3442669139862278
3.347290233241565
3.3462675462609757
3.3492896954429123
3.3482681778246963
3.3512891583546867
3.3502688086785737
3.353288621975642
3.3522694388239356
3.3552880863044785
3.3542700682620508
3.3572875513399514
3.3562706969941414
3.359287017080776
3.3582713250215086
3.361286483525733
3.360271952345393
3.363285950673565
3.3622725789670294
3.3652854185229644
3.364273204887689
3.367284887072746
3.3662738301086255
3.3692843563216166
3.368274454631066
3.3712838262683533
3.3702750784562765
3.3732832969117266
3.3722757015854814
3.375282768250472
3.3742763240199123
3.377282240283373
3.3762769457607975
3.379281713009199
3.3782775668094094
3.3812811864267194
3.3802781871669114
3.383280660534689
3.3822788068345946
3.385280135331906
3.384279425813626
3.387279610817132
3.3862800441052547
3.3892790869891782
3.3882806617107053
3.3912785638468037
3.390281278631138
3.3932780413887893
3.392281894867822
3.3952775196139724
3.394282510421947
3.3972769985210975
3.396283125294707
3.3992764781089604
3.3982837394873076
3.4012759583764
3.400284353000945
3.4032754393222038
3.4022849658368353
3.405274920945177
3.4042855779961485
3.407274403244108
3.406286189480086
3.4092738862178456
3.408286800289823
3.4112733698651527
3.4102874104265752
3.4132728541848683
3.4122880198914833
3.4152723391758535
3.4142886286857794
3.4172718248368734
3.4162892368105755
3.4192713111667805
3.418289844267071
3.4212707981643895
3.4202904510564767
3.4232702858285373
3.422291057179919
3.425269774158044
3.4242916626385687
3.427269263151765
3.4262922674335825
3.4292687528085297
3.428292871566155
3.431268243127186
3.430293475037407
3.433267734106572
3.4322940778484954
3.435267225745528
3.4342946800006153
3.437266718042906
3.436295281494854
3.4392662109975713
3.438295882332402
3.4412657046083486
3.440296482514389
3.443265198874146
3.44229708204196
3.445264693793772
3.4442976809162276
3.4472641893661344
3.4462982791383707
3.449263685590025
3.448298876709518
3.451263182464404
3.450299473630762
3.453262679988078
3.452300069903288
3.4552621781599324
3.4543006655281783
3.4572616769788604
3.4563012605065375
3.4592611764437122
3.458301854839549
3.4612606765534184
3.4603024485282656
3.4632601773068
3.4623030415738536
3.4652596787027963
3.4643036339774165
3.4672591807402546
3.466304225740046
3.469258683418081
3.4683048168628505
3.471258186735186
3.470305407346936
3.4732576906904495
3.4723059971934274
3.4752571952827904
3.4743065864033973
3.4772567005110693
3.476307174977951
3.4792562063742225
3.4783077629182113
3.4812557128711332
3.4803083502252243
3.483255220000745
3.4823089369000995
3.4852547277619372
3.484309522943926
3.4872542361536434
3.4863101083577956
3.4892537451747603
3.488310693142781
3.4912532548242257
3.4903112772999796
3.493252765100938
3.492311860830429
3.495252276003844
3.494312443735251
3.4972517875318787
3.49631302601549
3.49925129968394
3.498313607672227
3.501250812458981
3.500314188706513
3.50325032585592
3.502314769119441
3.505249839873693
3.5043153489120575
3.5072493545112753
3.5063159280854106
3.5092488697675472
3.508316506640579
3.511248385641496
3.5103170845785905
3.5132479021320595
3.5123176619005454
3.515247419238184
3.5143182386074514
3.517246936958808
3.516318814700362
3.519246455292881
3.5183193901803653
3.521245974239378
3.520319965048461
3.523245493797274
3.522320539305702
3.525245013965497
3.5243211129531256
3.5272445347430006
3.5263216859917605
3.5292440561287686
3.5283222584226768
3.5312435781217735
3.5303228302468574
3.533243100720976
3.5323234014653444
3.535242623925348
3.5343239720792012
3.537242147733849
3.5363245420894054
3.539241672145504
3.538325111497019
3.541241197159242
3.540325680303026
3.543240722774053
3.5423262485084432
3.5452402489889296
3.5443268161143537
3.547239775802852
3.546327383121671
3.549239303214817
3.5483279495315085
3.5512388312238143
3.550328515344771
3.5532383598288226
3.5523290805625383
3.5552378890288554
3.5543296451857964
3.5572374188228975
3.5563302092155338
3.5592369492099603
3.5583307726527726
3.5612364801890055
3.560331335498508
3.563236011759094
3.562331897753695
3.5652355439192034
3.564332459419389
3.5672350766683216
3.5663330204964945
3.5692346100054917
3.568333580986102
3.571234143929726
3.5703341408891482
3.5732336784400114
3.572334700206589
3.575233213535398
3.5743352589394637
3.577232749214873
3.5763358170887023
3.579232285477491
3.5783363746553025
3.5812318223222457
3.5803369316402525
3.5832313597481793
3.582337488044515
3.5852308977543164
3.5843380438690375
3.5872304363397056
3.586338599114842
3.5892299755033332
3.588339153782836
3.5912295152442777
3.5903397078740467
3.593229055561554
3.592340261389368
3.5952285964541906
3.5943408143297852
3.5972281379212805
3.5963413666962807
3.5992276799617917
3.598341918489805
3.6012272225748334
3.6003424697112867
3.6032267657594192
3.6023430203616913
3.605226309514616
3.6043435704419666
3.6072258538394495
3.6063441199530812
3.609225398732996
3.608344668895935
3.611224944194327
3.610345217271515
3.6132244902224566
3.61234576508073
3.6152240368164548
3.6143463123245585
3.6172235839754183
3.616346859003882
3.6192231316983965
3.618347405119673
3.6212226799844194
3.6203479506728713
3.623222228832598
3.6223484956643937
3.6252217782419973
3.6243490400951464
3.6272213282116814
3.6263495839660895
3.6292208787407056
3.62835012727816
3.631220429828163
3.6303506700322377
3.6332199814731365
3.632351212229253
3.6352195336747024
3.6343517538701615
3.6372190864319642
3.636352294955805
3.6392186397439796
3.6383528354871975
3.641218193609814
3.6403533754651667
3.64321774802862
3.642353914890677
3.6452173029994235
3.644354453764621
3.64721685852137
3.646354992087867
3.649216414593504
3.6483555298613513
3.6512159712149725
3.6503560670860016
3.6532155283848233
3.652356603762692
3.6552150861022046
3.6543571398923094
3.6572146443661806
3.6563576754757654
3.6592142031758774
3.658358210513975
3.66121376253041
3.6603587450077844
3.6632133224288443
3.6623592789581134
3.665212882870336
3.6643598123658485
3.6672124438539937
3.6663603452318894
3.669212005378912
3.6683608775570997
3.6712115674441863
3.67036140934235
3.6732111300489767
3.6723619405885595
3.675210693192392
3.674362471296569
3.6772102568735505
3.6763630014673048
3.679209821091584
3.6783635311015734
3.6812093858455825
3.680364060200328
3.683208951134716
3.682364588764373
3.685208516958076
3.684365116794599
3.6872080833148497
3.686365644291878
3.6892076502041307
3.6883661712570905
3.6912072176250494
3.690366697691089
3.6932067855767423
3.692367223594731
3.6952063540583913
3.6943677489688618
3.6972059230690784
3.696368273814409
3.699205492607983
3.698368798132121
3.701205062674222
3.7003693219229277
3.7032046332669957
3.702369845187641
3.7052042043853817
3.7043703679271744
3.7072037760285768
3.706370890142316
3.709203348195725
3.708371411833935
3.711202920885947
3.7103719330028717
3.713202494098465
3.712372453649968
3.7152020678323763
3.7143729737760953
3.717201642086844
3.716373493382035
3.71920121686107
3.7183740124686855
3.7212007921541908
3.7203745310368395
3.72320036796536
3.722375049087378
3.725199944293764
3.7243755666210676
3.7271995211385978
3.7263760836388027
3.7291990984989547
3.728376600141373
3.731198676374044
3.730377116129627
3.7331982547630624
3.7323776316043875
3.735197833665165
3.7343781465664643
3.737197413079515
3.736378661016684
3.739196993005326
3.7383791749558832
3.7411965734417496
3.7403796883848806
3.7431961543879924
3.7423802013044623
3.745195735843208
3.7443807137154836
3.7471953178065873
3.746381225618727
3.7491949002773355
3.7483817370149968
3.751194483254634
3.750382247905163
3.753194066737683
3.75238275828997
3.7551936507256656
3.754383268170225
3.7571932352177604
3.756383777546783
3.759192820213194
3.7583842864204087
3.7611924057111232
3.7603847947918947
3.7631919917108205
3.7623853026620977
3.7651915782114136
3.764385810031755
3.7671911652121337
3.766386316901688
3.769190752712195
3.768386823272678
3.7711903407107665
3.770387329145542
3.773189929207091
3.772387834521051
3.77518951820037
3.774388339399983
3.7771891076898214
3.7763888437831628
3.7791886976746483
3.7783893476713724
3.7811882881540817
3.780389851065369
3.783187879127309
3.782390353965917
3.785187470593566
3.784390856373849
3.7871870625520847
3.7863913582899245
3.789186655002045
3.7883918597149417
3.791186247942712
3.7903923606496432
3.7931858413732935
3.7923928610948
3.795185435293025
3.79439336105121
3.7971850297011107
3.796393860519621
3.7991846245968146
3.7983943595008536
3.8011842199793424
3.800394857995615
3.8031838158479085
3.802395356004705
3.8051834122018073
3.8043958535288587
3.807183009040225
3.8063963505688867
3.809182606362414
3.808396847125482
3.811182204167601
3.8103973431995115
3.8131818024550355
3.8123978387916355
3.815181401223988
3.8143983339026493
3.8171810004736626
3.816398828533315
3.8191806002033046
3.8183993226843573
3.8211802004122055
3.8203998163565416
3.823179801099568
3.8224003095506363
3.8251794022646695
3.824400802267375
3.827179003906731
3.8264012945075168
3.8291786060250343
3.8284017862717894
3.831178208618823
3.830402277560948
3.833177811687361
3.8324027683757262
3.835177415229932
3.834403258716855
3.8371770192457277
3.836403748585125
3.8391766237340628
3.8384042379812198
3.8411762286941724
3.840404726905923
3.8431758341253337
3.842405215359918
3.845175440026813
3.84440570334396
3.847175046397868
3.846406190858795
3.849174653237767
3.8484066779051402
3.851174260545826
3.8504071644837397
3.85317386832126
3.852407650595286
3.8551734765633454
3.8544081362405374
3.8571730852713837
3.8564086214202256
3.8591726944446485
3.858409106135042
3.8611723040824124
3.8604095903857125
3.8631719141839436
3.8624100741729874
3.8651715247485297
3.8644105574975582
3.8671711357754575
3.8664110403601346
3.8691707472639933
3.868411522761466
3.871170359213451
3.8704120047022337
3.8731699716231107
3.8724124861831837
3.8751695844922374
3.8744129672049734
3.877169197820152
3.876413447768371
3.8791688116061187
3.878413927874037
3.8811684258494505
3.880414407522722
3.883168040549404
3.882414886715104
3.8851676557053323
3.8844153654518903
3.887167271316489
3.886415843733778
3.8891668873822125
3.888416321561462
3.8911665039017618
3.8904167989356875
3.8931661208744512
3.8924172758570834
3.8951657382995943
3.8944177523264107
3.8971653561764823
3.8964182283443156
3.8991649745044206
3.8984187039115317
3.9011645932827155
3.900419179028735
3.9031642125106893
3.9024196536965974
3.9051638321876427
3.904420127915807
3.907163452312895
3.9064206016870906
3.9091630728857436
3.908421075011116
3.9111626939055024
3.910421547888557
3.913162315371498
3.9124220203201214
3.9151619372830786
3.914422492306453
3.917161559639503
3.9164229638482437
3.919161182440103
3.9184234349462193
3.921160805684221
3.9204239056010146
3.92316042937119
3.9224243758133017
3.9251600535003104
3.9244248455838067
3.927159678070885
3.9264253149131294
3.9291593030822884
3.928425783801993
3.931158928533824
3.93042625225105
3.9331585544248306
3.932426720260976
3.9351581807546294
3.9344271878324477
3.9371578075225706
3.9364276549661215
3.9391574347279326
3.9384281216626706
3.941157062370129
3.9404285879227348
3.9431566904484576
3.9424290537470257
3.945156318962243
3.944429519136159
3.9471559479108462
3.946429984090806
3.94915557729358
3.948430448611668
3.951155207109834
3.9504309126993324
3.9531548373589045
3.9524313763545114
3.955154468040127
3.9544318395778415
3.957154099152913
3.956432302369981
3.959153730696572
3.958432764731539
3.961153362670428
3.9604332266632194
3.9631529950738598
3.9624336881656705
3.965152627906191
3.964434149239521
3.967152261166802
3.9664346098854315
3.9691518948550706
3.9684350701040114
3.9711515289702803
3.970435529895984
3.9731511635118415
3.972435989261914
3.975150798479088
3.9744364482024723
3.977150433871376
3.9764369067182996
3.9791500696880955
3.978437364810056
3.9811497059285643
3.980437822478345
3.9831493425921862
3.9824382797238047
3.985148979678299
3.9844387365471055
3.987148617186274
3.986439192948851
3.9891482551154636
3.9884396489296927
3.9911478934652695
3.990440104490239
3.993147532235019
3.9924405596311483
3.9951471714241142
3.994441014353046
3.997146811031925
3.9964414686565233
3.9991464510578183
3.998441922542242
4.001146091501159
4.000442376010833
4.0031457323613235
4.002442829062909
4.00514537363771
4.004443281699084
4.0071450153296535
4.006443733920008
4.009144657436568
4.00844418572625
4.011144299957818
4.010444637118484
4.013143942892814
4.012445088097287
4.015143586240919
4.014445538663298
4.017143230001499
4.016445988817153
4.019142874173927
4.0184464385594065
4.021142518757643
4.020446887890716
4.023142163752003
4.022447336811696
4.025141809156402
4.024447785322929
4.027141454970222
4.026448233425058
4.0291411011928515
4.0284486811186415
4.03114074782369
4.030449128404352
4.033140394862131
4.032449575282777
4.035140042307598
4.034450021754479
4.037139690159433
4.036450467820055
4.039139338417058
4.0384509134801965
4.041138987079891
4.040451358735427
4.043138636147308
4.042451803586379
4.045138285618694
4.04445224803362
4.047137935493483
4.04645269207779
4.049137585771067
4.048453135719465
4.051137236450858
4.050453578959227
4.0531368875322356
4.052454021797688
4.055136539014634
4.054454464235413
4.05713619089745
4.05645490627303
4.0591358431800995
4.0584553479111545
4.061135495861966
4.060455789150275
4.063135148942496
4.062456229991063
4.065134802421086
4.064456670434102
4.067134456297147
4.066457110479949
4.069134110570116
4.068457550129181
4.071133765239363
4.070457989382408
4.073133420304359
4.0724584282402265
4.07513307576447
4.074458866703163
4.077132731619145
4.076459304771845
4.079132387867828
4.078459742446847
4.081132044509875
4.080460179728706
4.08313170154477
4.08246061661805
4.085131358971893
4.084461053115439
4.087131016790701
4.086461489221431
4.089130675000597
4.088461924936614
4.091130333601062
4.090462360261558
4.093129992591425
4.092462795196825
4.095129651971211
4.094463229742999
4.097129311739804
4.096463663900615
4.099128971896631
4.098464097670291
4.101128632441156
4.100464531052598
4.103128293372774
4.102464964048047
4.105127954690951
4.104465396657214
4.107127616395131
4.106465828880698
4.109127278484705
4.108466260719034
4.111126940959157
4.110466692172796
4.113126603817893
4.112467123242553
4.1151262670603765
4.114467553928831
4.117125930686039
4.116467984232197
4.119125594694325
4.1184684141532255
4.121125259084683
4.120468843692458
4.123124923856565
4.122469272850473
4.125124589009396
4.1244697016278
4.127124254542609
4.126470130024979
4.129123920455698
4.128470558042615
4.131123586748107
4.130470985681195
4.133123253419255
4.132471412941279
4.135122920468599
4.134471839823469
4.137122587895611
4.136472266328242
4.13912225569972
4.138472692456215
4.141121923880401
4.14047311820788
4.143121592437117
4.142473543583793
4.145121261369296
4.144473968584495
4.147120930676411
4.146474393210547
4.149120600357937
4.148474817462466
4.151120270413278
4.150475241340815
4.153119940841945
4.152475664846108
4.155119611643393
4.154476087978899
4.157119282817083
4.156476510739717
4.15911895436246
4.158476933129096
4.161118626279033
4.1604773551475756
4.163118298566222
4.162477776795688
4.1651179712235065
4.164478198073982
4.167117644250356
4.1664786189829695
4.169117317646245
4.168479039523172
4.17111699141066
4.1704794596951675
4.1731166655430165
4.1724798794994085
4.175116340042836
4.174480298936492
4.177116014909593
4.176480718006909
4.179115690142741
4.178481136711186
4.181115365741753
4.180481555049843
4.183115041706099
4.182481973023425
4.1851147180353
4.184482390632465
4.187114394728793
4.186482807877453
4.189114071786062
4.1884832247588815
4.1911137492065835
4.190483641277354
4.193113426989877
4.192484057433308
4.195113105135379
4.194484473227334
4.197112783642571
4.196484888659866
4.199112462510984
4.198485303731494
4.201112141740066
4.200485718442696
4.203111821329296
4.202486132793987
4.2051115012781946
4.204486546785903
4.207111181586224
4.206486960418906
4.209110862252874
4.208487373693549
4.211110543277637
4.210487786610331
4.213110224660023
4.212488199169771
4.215109906399504
4.214488611372331
4.217109588495594
4.216489023218587
4.219109270947745
4.218489434709013
4.221108953755471
4.220489845844091
4.223108636918285
4.222490256624353
4.225108320435668
4.224490667050295
4.227108004307127
4.226491077122415
4.229107688532155
4.228491486841207
4.231107373110251
4.230491896207187
4.233107058040914
4.232492305220867
4.235106743323653
4.234492713882722
4.237106428957943
4.23649312219323
4.239106114943326
4.238493530152923
4.241105801279302
4.240493937762277
4.243105487965335
4.242494345021794
4.245105175000985
4.244494751931969
4.247104862385697
4.246495158493294
4.249104550119041
4.2484955647062606
4.251104238200498
4.250495970571369
4.2531039266295885
4.252496376089072
4.255103615405783
4.25449678125991
4.257103304528672
4.256497186084328
4.259102993997697
4.2584975905628255
4.261102683812365
4.260497994695912
4.263102373972231
4.262498398484038
4.265102064476845
4.264498801927714
4.267101755325636
4.266499205027409
4.269101446518151
4.268499607783612
4.271101138053966
4.270500010196786
4.273100829932516
4.272500412267447
4.275100522153387
4.274500813996049
4.277100214716042
4.276501215383097
4.279099907620027
4.278501616429025
4.281099600864898
4.280502017134342
4.283099294450144
4.282502417499519
4.2850989883752755
4.284502817525031
4.287098682639849
4.286503217211325
4.289098377243378
4.288503616558928
4.291098072185394
4.290504015568273
4.293097767465409
4.292504414239845
4.295097463082964
4.294504812574128
4.297097159037608
4.2965052105715555
4.299096855328829
4.298505608232629
4.3010965519561974
4.300506005557804
4.303096248919224
4.3025064025475634
4.305095946217425
4.304506799202313
4.307095643850376
4.306507195522619
4.309095341817579
4.308507591508874
4.311095040118606
4.310507987161564
4.3130947387529535
4.312508382481139
4.315094437720161
4.31450877746807
4.3170941370198
4.316509172122847
4.319093836651395
4.318509566445861
4.321093536614455
4.320509960437639
4.323093236908567
4.322510354098617
4.325092937533247
4.324510747429237
4.3270926384880495
4.32651114042999
4.329092339772524
4.328511533101281
4.33109204138617
4.330511925443619
4.333091743328585
4.332512317457423
4.33509144559927
4.3345127091431666
4.337091148197833
4.336513100501302
4.339090851123765
4.338513491532277
4.341090554376649
4.340513882236506
4.343090257955994
4.342514272614515
4.345089961861369
4.344514662666686
4.347089666092368
4.346515052393499
4.349089370648497
4.348515441795407
4.351089075529305
4.350515830872842
4.353088780734372
4.352516219626262
4.355088486263187
4.354516608056072
4.35708819211542
4.35651699616279
4.359087898290539
4.3585173839468085
4.361087604788129
4.3605177714085865
4.363087311607722
4.362518158548544
4.365087018748931
4.364518545367153
4.36708672621127
4.36651893186484
4.369086433994298
4.368519318042045
4.371086142097584
4.370519703899213
4.373085850520714
4.372520089436759
4.375085559263214
4.37452047465516
4.377085268324666
4.376520859554804
4.37908497770463
4.378521244136184
4.381084687402687
4.380521628399684
4.3830843974183615
4.382522012345756
4.385084107751257
4.3845223959748685
4.387083818400925
4.386522779287381
4.389083529366931
4.388523162283785
4.391083240648863
4.390523544964471
4.393082952246271
4.3925239273299175
4.395082664158734
4.3945243093805395
4.397082376385797
4.396524691116716
4.399082088927068
4.398525072538923
4.401081801782124
4.4005254536475835
4.403081514950504
4.4025258344431055
4.405081228431805
4.404526214925934
4.407080942225588
4.406526595096492
4.40908065633145
4.40852697495518
4.4110803707489366
4.410527354502469
4.413080085477658
4.412527733738728
4.415079800517153
4.414528112664404
4.417079515867042
4.416528491279901
4.419079231526874
4.418528869585688
4.421078947496254
4.4205292475821185
4.423078663774739
4.422529625269638
4.425078380361928
4.424530002648682
4.427078097257407
4.4265303797196545
4.429077814460729
4.42853075648297
4.4310775319715265
4.430531132939055
4.4330772497893305
4.432531509088312
4.4350769679137505
4.434531884931135
4.437076686344399
4.436532260467978
4.439076405080816
4.438532635699233
4.441076124122626
4.4405330106253205
4.443075843469364
4.442533385246651
4.445075563120724
4.44453375956363
4.447075283076176
4.446534133576643
4.449075003335403
4.448534507286154
4.4510747238979524
4.450534880692529
4.4530744447634065
4.45253525379617
4.455074165931375
4.454535626597517
4.457073887401458
4.456535999096959
4.459073609173246
4.458536371294896
4.4610733312463235
4.460536743191752
4.463073053620301
4.462537114787899
4.465072776294768
4.464537486083759
4.467072499269308
4.466537857079749
4.469072222543558
4.468538227776248
4.471071946117081
4.470538598173655
4.473071669989491
4.472538968272375
4.47507139416037
4.474539338072815
4.477071118629327
4.4765397075753945
4.479070843395966
4.478540076780474
4.48107056845993
4.4805404456884546
4.483070293820755
4.482540814299747
4.485070019478073
4.484541182614741
4.487069745431518
4.486541550633836
4.489069471680641
4.48854191835744
4.491069198225079
4.490542285785907
4.493068925064446
4.492542652919665
4.495068652198319
4.494543019759079
4.497068379626348
4.496543386304562
4.499068107348098
4.49854375255653
4.501067835363208
4.5005441185153
4.503067563671271
4.502544484181332
4.505067292271908
4.504544849554984
4.507067021164721
4.506545214636658
4.509066750349325
4.508545579426699
4.511066479825344
4.510545943925544
4.51306620959239
4.51254630813358
4.515065939650059
4.514546672051149
4.517065669997993
4.516547035678669
4.519065400635772
4.518547399016531
4.521065131563035
4.5205477620650845
4.523064862779399
4.522548124824733
4.525064594284485
4.524548487295856
4.527064326077892
4.526548849478844
4.529064058159256
4.528549211374072
4.531063790528203
4.530549572981916
4.533063523184328
4.532549934302759
4.535063256127284
4.5345502953369685
4.537062989356662
4.536550656084927
4.5390627228720914
4.538551016547017
4.541062456673228
4.540551376723629
4.543062190759645
4.542551736615115
4.54506192513099
4.54455209622187
4.547061659786897
4.546552455544248
4.5490613947269845
4.548552814582652
4.551061129950863
4.550553173337421
4.553060865458198
4.5525535318089165
4.555060601248584
4.554553889997604
4.557060337321658
4.556554247903747
4.5590600736770215
4.55855460552776
4.561059810314356
4.56055496287002
4.563059547233264
4.562555319930884
4.565059284433385
4.564555676710728
4.567059021914335
4.566556033209915
4.5690587596757695
4.568556389428818
4.571058497717278
4.570556745367801
4.5730582360385545
4.572557101027227
4.575057974639194
4.574557456407479
4.577057713518822
4.5765578115088745
4.5790574526771035
4.578558166331844
4.581057192113675
4.580558520876701
4.583056931828129
4.582558875143841
4.585056671820166
4.584559229133607
4.587056412089367
4.58655958284637
4.589056152635405
4.5885599362824685
4.591055893457909
4.590560289442285
4.593055634556522
4.592560642326176
4.595055375930886
4.594560994934496
4.597055117580625
4.5965613472676115
4.599054859505413
4.598561699325895
4.601054601704851
4.600562051109675
4.603054344178614
4.602562402619314
4.605054086926321
4.604562753855164
4.607053829947651
4.606563104817602
4.6090535732422095
4.608563455506968
4.611053316809669
4.610563805923613
4.613053060649669
4.612564156067908
4.615052804761845
4.614564505940194
4.617052549145858
4.616564855540829
4.619052293801362
4.61856520487014
4.621052038727974
4.620565553928514
4.623051783925389
4.622565902716289
4.625051529393188
4.6245662512338015
4.6270512751311035
4.626566599481432
4.629051021138729
4.628566947459481
4.63105076741573
4.630567295168348
4.633050513961762
4.632567642608328
4.635050260776511
4.634567989779823
4.637050007859559
4.636568336683141
4.639049755210597
4.638568683318664
4.6410495028293015
4.640569029686692
4.643049250715289
4.642569375787602
4.645048998868253
4.644569721621723
4.647048747287821
4.646570067189406
4.649048495973659
4.648570412490973
4.651048244925433
4.650570757526795
4.65304799414277
4.652571102297232
4.655047743625357
4.654571446802551
4.657047493372839
4.656571791043163
4.659047243384893
4.658572135019384
4.661046993661189
4.660572478731544
4.663046744201351
4.662572822179991
4.665046495005062
4.6645731653650575
4.667046246071958
4.666573508287108
4.6690459974017395
4.668573850946421
4.6710457489940636
4.670574193343394
4.6730455008485805
4.672574535478339
4.675045252964966
4.674574877351564
4.677045005342857
4.676575218963453
4.6790447579819565
4.678575560314313
4.6810445108819145
4.68057590140449
4.683044264042379
4.682576242234298
4.6850440174630466
4.68457658280408
4.68704377114359
4.686576923114151
4.689043525083658
4.688577263164891
4.691043279282902
4.690577602956587
4.693043033741019
4.692577942489555
4.695042788457674
4.69457828176419
4.697042543432541
4.696578620780778
4.699042298665298
4.69857895953962
4.701042054155595
4.700579298041106
4.703041809903116
4.7025796362855266
4.705041565907523
4.704579974273186
4.707041322168531
4.706580312004489
4.709041078685756
4.7085806494796865
4.711040835458894
4.7105809866991075
4.713040592487631
4.712581323663122
4.7150403497716376
4.714581660372027
4.717040107310593
4.716581996826147
4.719039865104173
4.718582333025792
4.721039623152044
4.720582668971308
4.723039381453904
4.722583004663007
4.725039140009394
4.724583340101217
4.727038898818254
4.726583675286245
4.729038657880117
4.7285840102184284
4.73103841719465
4.730584344898081
4.733038176761587
4.7325846793255
4.735037936580575
4.734585013501052
4.737037696651286
4.736585347424999
4.739037456973428
4.7385856810976925
4.741037217546673
4.740586014519448
4.743036978370696
4.74258634769056
4.745036739445194
4.7445866806113886
4.74703650076986
4.746587013282198
4.749036262344331
4.748587345703322
4.751036024168342
4.750587677875107
4.753035786241576
4.752588009797796
4.755035548563694
4.754588341471766
4.757035311134395
4.7565886728973155
4.759035073953366
4.758589004074756
4.761034837020302
4.76058933500437
4.763034600334885
4.762589665686511
4.765034363896798
4.76458999612146
4.767034127705758
4.766590326309535
4.769033891761407
4.768590656251065
4.771033656063481
4.7705909859463205
4.773033420611665
4.772591315395649
4.775033185405613
4.774591644599329
4.777032950445049
4.776591973557693
4.779032715729683
4.778592302271025
4.781032481259162
4.780592630739652
4.783032247033207
4.782592958963844
4.785032013051495
4.784593286943962
4.787031779313765
4.78659361468026
4.789031545819663
4.78859394217308
4.791031312568908
4.790594269422691
4.79303107956119
4.79259459642944
4.795030846796216
4.794594923193578
4.797030614273652
4.7965952497154545
4.799030381993241
4.798595575995351
4.801030149954653
4.8005959020335585
4.803029918157587
4.8025962278303975
4.805029686601757
4.80459655338615
4.807029455286845
4.806596878701119
4.809029224212566
4.808597203775621
4.811028993378628
4.810597528609944
4.813028762784704
4.812597853204403
4.815028532430513
4.814598177559244
4.817028302315745
4.816598501674834
4.8190280724401475
4.818598825551401
4.821027842803354
4.8205991491892926
4.823027613405133
4.822599472588802
4.825027384245122
4.8245997957502045
4.827027155323095
4.826600118673794
4.8290269266387345
4.828600441359879
4.831026698191714
4.830600763808726
4.833026469981763
4.832601086020687
4.835026242008601
4.834601407995985
4.837026014271937
4.8366017297349595
4.839025786771434
4.838602051237896
4.841025559506847
4.840602372505056
4.84302533247787
4.842602693536762
4.845025105684196
4.84460301433331
4.847024879125577
4.846603334894953
4.849024652801676
4.8486036552220035
4.851024426712239
4.8506039753147645
4.853024200856951
4.852604295173513
4.855023975235512
4.854604614798523
4.857023749847685
4.856604934190084
4.859023524693163
4.858605253348506
4.861023299771627
4.860605572274065
4.863023075082826
4.8626058909670355
4.865022850626449
4.864606209427746
4.867022626402229
4.8666065276564225
4.869022402409881
4.868606845653361
4.871022178649096
4.87060716341886
4.873021955119631
4.872607480953245
4.875021731821164
4.874607798256708
4.877021508753423
4.876608115329601
4.8790212859161395
4.878608432172207
4.8810210633090145
4.8806087487847885
4.883020840931754
4.882609065167628
4.885020618784127
4.884609381320988
4.88702039686581
4.886609697245185
4.889020175176508
4.888610012940469
4.891019953716
4.890610328407148
4.893019732483957
4.892610643645459
4.895019511480113
4.89461095865572
4.897019290704192
4.8966112734382445
4.8990190701559095
4.898611587993195
4.901018849835016
4.9006119023209544
4.9030186297411875
4.902612216421749
4.9050184098741925
4.90461253029589
4.907018190233731
4.9066128439436065
4.9090179708195
4.908613157365221
4.911017751631285
4.9106134705609845
4.913017532668768
4.912613783531169
4.915017313931686
4.91461409627606
4.917017095419769
4.9166144087959225
4.9190168771327345
4.918614721091046
4.921016659070322
4.920615033161682
4.923016441232237
4.9226153450081185
4.925016223618219
4.924615656630619
4.927016006227999
4.92661596802946
4.929015789061345
4.928616279204903
4.931015572117893
4.93061659015725
4.933015355397454
4.932616900886717
4.935015138899711
4.934617211393633
4.937014922624408
4.936617521678226
4.939014706571276
4.938617831740796
4.941014490740075
4.94061814158156
4.943014275130513
4.9426184512008415
4.945014059742309
4.9446187605988765
4.947013844575193
4.946619069775965
4.949013629628921
4.948619378732325
4.951013414903234
4.950619687468282
4.953013200397822
4.952619995984061
4.955012986112441
4.954620304279918
4.957012772046891
4.956620612356157
4.959012558200802
4.958620920212993
4.961012344573948
4.96062122785075
4.9630121311660815
4.962621535269655
4.965011917976914
4.964621842469995
4.967011705006213
4.966622149451978
4.969011492253701
4.9686224562159245
4.971011279719107
4.970622762762079
4.9730110674021875
4.972623069090696
4.975010855302668
4.974623375202049
4.977010643420269
4.976623681096391
4.979010431754743
4.978623986773978
4.98101022030586
4.980624292235066
4.98301000907335
4.98262459747994
4.985009798056902
4.984624902508845
4.987009587256332
4.986625207322024
4.989009376671322
4.988625511919778
4.991009166301628
4.990625816302317
4.9930089561470075
4.992626120469906
4.995008746207207
4.9946264244228304
4.9970085364819585
4.996626728161326
4.999008326970993
4.998627031685653
5.001008117674085
5.000627334996089
5.003007908590924
5.002627638092851
5.005007699721323
5.004627940976199
5.007007491064995
5.0066282436464284
5.009007282621678
5.008628546103768
5.0110070743911255
5.010628848348439
5.013006866373093
5.012629150380729
5.015006658567322
5.014629452200905
5.01700645097354
5.016629753809218
5.019006243591505
5.0186300552058745
5.0210060364209745
5.0206303563911785
5.023005829461711
5.022630657365346
5.025005622713422
5.024630958128638
5.0270054161758955
5.026631258681303
5.0290052098488625
5.028631559023602
5.031005003732088
5.0306318591558
5.033004797825267
5.032632159078107
5.0350045921282245
5.034632458790786
5.037004386640699
5.036632758294111
5.039004181362413
5.038633057588299
5.041003976293098
5.040633356673616
5.043003771432577
5.042633655550294
5.045003566780516
5.044633954218576
5.047003362336751
5.046634252678757
5.049003158100978
5.048634550931031
5.0510029540729855
5.050634848975653
5.053002750252511
5.052635146812888
5.0550025466393125
5.054635444442963
5.05700234323313
5.056635741866129
5.059002140033774
5.058636039082629
5.061001937040908
5.060636336092728
5.063001734254378
5.062636632896635
5.065001531673896
5.064636929494584
5.067001329299229
5.066637225886885
5.069001127130108
5.068637522073711
5.071000925166338
5.07063781805535
5.073000723407641
5.072638113832
5.075000521853791
5.074638409403945
5.07700032050455
5.076638704771395
5.079000119359664
5.078638999934624
5.080999918418907
5.080639294893822
5.082999717682027
5.082639589649286
5.084999517148784
5.084639884201219
5.0869993168189565
5.0866401785498665
5.088999116692274
5.088640472695476
5.090998916768534
5.090640766638273
5.092998717047469
5.0926410603784955
5.094998517528881
5.09464135391639
5.096998318212468
5.096641647252191
5.098998119098055
5.0986419403861465
5.100997920185362
5.100642233318469
5.10299772147418
5.102642526049426
5.104997522964269
5.104642818579214
5.106997324655403
5.1066431109080765
5.108997126547297
5.108643403036285
5.110996928639779
5.110643694964045
5.112996730932565
5.112643986691577
5.114996533425452
5.114644278219172
5.116996336118216
5.1166445695469935
5.1189961390106
5.118644860675309
5.120995942102384
5.120645151604346
5.122995745393313
5.122645442334353
5.124995548883162
5.124645732865512
5.126995352571715
5.12664602319815
5.128995156458752
5.128646313332396
5.130994960543987
5.130646603268548
5.132994764827259
5.132646893006789
5.1349945693082875
5.134647182547375
5.136994373986884
5.136647471890534
5.138994178862759
5.1386477610364905
5.140993983935719
5.1406480499855105
5.14299378920555
5.142648338737754
5.144993594671998
5.144648627293502
5.146993400334863
5.146648915652958
5.14899320619387
5.148649203816375
5.1509930122488266
5.150649491783925
5.15299281849952
5.1526497795559045
5.154992624945681
5.154650067132521
5.156992431587115
5.156650354513959
5.158992238423572
5.158650641700482
5.160992045454868
5.1606509286923306
5.162991852680719
5.162651215489669
5.164991660100944
5.164651502092778
5.166991467715287
5.1666517885018495
5.1689912755235525
5.168652074717138
5.1709910835254975
5.170652360738856
5.172990891720946
5.172652646567203
5.174990700109592
5.174652932202446
5.176990508691264
5.176653217644758
5.1789903174657255
5.178653502894432
5.180990126432773
5.180653787951602
5.182989935592155
5.182654072816543
5.184989744943671
5.184654357489461
5.1869895544870905
5.186654641970613
5.188989364222184
5.188654926260148
5.190989174148776
5.190655210358358
5.192988984266594
5.192655494265409
5.194988794575426
5.194655777981551
5.196988605075078
5.196656061507011
5.198988415765329
5.1986563448420045
5.200988226645919
5.200656627986704
5.20298803771669
5.202656910941367
5.204987848977369
5.204657193706234
5.206987660427767
5.206657476281506
5.208987472067682
5.20865775866735
5.210987283896834
5.210658040864044
5.212987095915078
5.212658322871784
5.214986908122139
5.214658604690786
5.216986720517874
5.216658886321284
5.218986533101966
5.2186591677634695
5.220986345874286
5.220659449017537
5.2229861588345905
5.222659730083758
5.224985971982643
5.224660010962309
5.226985785318267
5.22666029165342
5.228985598841238
5.2286605721572945
5.230985412551316
5.230660852474162
5.2329852264483065
5.232661132604219
5.234985040531997
5.234661412547708
5.23698485480216
5.236661692304765
5.238984669258609
5.238661971875686
5.240984483901128
5.240662251260657
5.24298429872948
5.24266253045988
5.244984113743461
5.244662809473593
5.246983928942881
5.246663088301949
5.248983744327505
5.2486633669452125
5.250983559897142
5.250663645403582
5.252983375651578
5.252663923677246
5.254983191590582
5.254664201766475
5.256983007713975
5.256664479671375
5.25898282402151
5.25866475739227
5.260982640512995
5.260665034929275
5.262982457188259
5.262665312282663
5.264982274047056
5.264665589452599
5.266982091089174
5.266665866439341
5.268981908314433
5.268666143243014
5.270981725722557
5.27066641986393
5.272981543313434
5.272666696302219
5.27498136108677
5.274666972558112
5.276981179042445
5.276667248631797
5.2789809971801915
5.278667524523516
5.280980815499823
5.2806678002334495
5.282980634001124
5.28266807576181
5.284980452683868
5.284668351108792
5.2869802715479235
5.2866686262746265
5.288980090593028
5.288668901259505
5.290979909818981
5.290669176063599
5.2929797292255865
5.29266945068717
5.294979548812665
5.294669725130382
5.296979368579956
5.296669999393466
5.298979188527292
5.298670273476586
5.300979008654491
5.300670547379978
5.302978828961321
5.3026708211038285
5.304978649447599
5.304671094648339
5.306978470113073
5.306671368013725
5.308978290957619
5.308671641200177
5.310978111980981
5.310671914207916
5.3129779331829425
5.3126721870371245
5.3149777545633565
5.31467245968798
5.31697757612202
5.316672732160728
5.318977397858696
5.318673004455513
5.32097721977319
5.320673276572605
5.322977041865338
5.322673548512138
5.324976864134904
5.324673820274382
5.326976686581695
5.326674091859466
5.3289765092055195
5.3286743632676075
5.330976332006191
5.330674634499034
5.332976154983492
5.3326749055539056
5.334975978137236
5.334675176432437
5.336975801467209
5.336675447134839
5.338975624973256
5.3386757176612845
5.340975448655107
5.340675988011997
5.342975272512619
5.342676258187125
5.344975096545623
5.344676528186934
5.346974920753853
5.346676798011541
5.348974745137166
5.348677067661217
5.35097456969534
5.350677337136106
5.352974394428181
5.352677606436427
5.35497421933549
5.354677875562349
5.3569740444171225
5.3566781445141
5.358973869672795
5.358678413291852
5.360973695102402
5.360678681895805
5.362973520705704
5.362678950326159
5.364973346482512
5.364679218583103
5.366973172432618
5.366679486666814
5.368972998555866
5.368679754577494
5.370972824852051
5.370680022315352
5.372972651320974
5.3726802898805675
5.374972477962452
5.374680557273293
5.376972304776278
5.376680824493797
5.378972131762253
5.378681091542225
5.380971958920199
5.380681358418782
5.382971786249956
5.382681625123639
5.384971613751276
5.384681891657007
5.386971441424033
5.386682158019054
5.388971269267981
5.388682424209999
5.390971097282946
5.390682690229997
5.392970925468764
5.392682956079275
5.394970753825194
5.394683221758003
5.396970582352127
5.396683487266356
5.398970411049278
5.398683752604549
5.4009702399165525
5.400684017772734
5.402970068953708
5.402684282771128
5.404969898160554
5.40468454759994
5.406969727536914
5.406684812259306
5.408969557082617
5.40868507674944
5.41096938679745
5.410685341070513
5.412969216681247
5.412685605222726
5.414969046733819
5.414685869206259
5.416968876954971
5.416686133021315
5.418968707344522
5.418686396668063
5.420968537902276
5.420686660146682
5.422968368628077
5.42268692345738
5.424968199521722
5.424687186600305
5.426968030582996
5.426687449575681
5.428967861811775
5.428687712383668
5.43096769320783
5.430687975024449
5.432967524771005
5.432688237498222
5.434967356501085
5.434688499805167
5.4369671883979125
5.4366887619454705
5.438967020461293
5.4386890239192915
5.440966852691049
5.440689285726835
5.442966685087037
5.442689547368277
5.444966517648977
5.444689808843806
5.4469663503767505
5.446690070153584
5.448966183270204
5.448690331297824
5.450966016329105
5.45069059227669
5.4529658495532844
5.452690853090355
5.454965682942584
5.454691113738996
5.456965516496795
5.456691374222805
5.4589653502157525
5.458691634541972
5.460965184099258
5.460691894696693
5.462965018147161
5.462692154687073
5.464964852359267
5.46469241451337
5.466964686735405
5.466692674175706
5.468964521275351
5.468692933674292
5.470964355979008
5.470693193009335
5.472964190846126
5.4726934521809545
5.474964025876551
5.474693711189353
5.476963861070121
5.476693970034715
5.478963696426663
5.4786942287171945
5.480963531945936
5.480694487237009
5.482963367627846
5.482694745594305
5.484963203472179
5.484695003789234
5.486963039478753
5.4866952618220415
5.488962875647376
5.488695519692867
5.490962711977912
5.490695777401867
5.492962548470155
5.4926960349492555
5.494962385123955
5.494696292335189
5.496962221939122
5.49669654955982
5.49896205891547
5.498696806623371
5.500961896052821
5.500697063525966
5.50296173335105
5.502697320267834
5.5049615708099235
5.504697576849093
5.506961408429291
5.506697833269992
5.508961246209
5.508698089530609
5.5109610841488506
5.510698345631175
5.512960922248646
5.512698601571864
5.514960760508271
5.51469885735285
5.516960598927505
5.516699112974263
5.518960437506231
5.518699368436327
5.520960276244208
5.5206996237391985
5.522960115141299
5.522699878883019
5.524959954197328
5.524700133868022
5.5269597934121295
5.526700388694305
5.528959632785538
5.528700643362104
5.530959472317359
5.5307008978715695
5.532959312007426
5.5327011522228355
5.534959151855599
5.53470140641613
5.536958991861675
5.536701660451566
5.5389588320254575
5.538701914329366
5.5409586723469015
5.540702168049661
5.5429585128256775
5.542702421612656
5.544958353461717
5.544702675018499
5.546958194254825
5.546702928267333
5.548958035204812
5.548703181359384
5.550957876311547
5.55070343429479
5.552957717574834
5.552703687073719
5.554957558994514
5.554703939696314
5.556957400570421
5.556704192162783
5.558957242302387
5.558704444473277
5.560957084190226
5.560704696627971
5.562956926233796
5.562704948627023
5.564956768432942
5.564705200470617
5.566956610787433
5.566705452158888
5.568956453297181
5.568705703692033
5.570956295961992
5.570705955070179
5.572956138781666
5.572706206293515
5.574955981756065
5.574706457362259
5.5769558248850455
5.576706708276478
5.578955668168398
5.578706959036433
5.580955511606005
5.580707209642191
5.582955355197657
5.58270746009399
5.584955198943201
5.58470771039197
5.5869550428425185
5.586707960536295
5.58895488689536
5.588708210527126
5.590954731101625
5.590708460364639
5.59295457546116
5.592708710048977
5.594954419973763
5.594708959580317
5.596954264639264
5.596709208958835
5.598954109457548
5.598709458184689
5.600953954428413
5.600709707258012
5.602953799551682
5.602709956178996
5.604953644827245
5.604710204947796
5.606953490254916
5.606710453564547
5.608953335834522
5.60871070202946
5.610953181565912
5.6107109503426456
5.612953027448913
5.6127111985042974
5.614952873483381
5.614711446514607
5.616952719669175
5.616711694373656
5.618952566006091
5.6187119420816645
5.620952412493961
5.6207121896387635
5.622952259132676
5.622712437045136
5.624952105922032
5.624712684300913
5.6269519528619165
5.6267129314062805
5.628951799952134
5.62871317836138
5.630951647192511
5.630713425166402
5.632951494582932
5.632713671821466
5.634951342123185
5.634713918326743
5.636951189813169
5.636714164682403
5.638951037652689
5.638714410888576
5.640950885641598
5.640714656945455
5.642950733779749
5.642714902853188
5.644950582066948
5.644715148611923
5.6469504305030815
5.646715394221804
5.648950279087986
5.648715639683024
5.650950127821466
5.650715884995712
5.652949976703391
5.652716130160046
5.65494982573361
5.654716375176166
5.656949674911954
5.656716620044227
5.658949524238314
5.658716864764396
5.660949373712459
5.660717109336798
5.662949223334254
5.662717353761655
5.664949073103584
5.664717598039058
5.666948923020254
5.666717842169184
5.668948773084131
5.6687180861521815
5.670948623295057
5.670718329988233
5.67294847365287
5.672718573677455
5.67494832415742
5.674718817220022
5.676948174808522
5.676719060616089
5.67894802560608
5.678719303865811
5.680947876549909
5.680719546969318
5.682947727639878
5.6827197899267885
5.684947578875771
5.68472003273838
5.686947430257518
5.686720275404228
5.688947281784914
5.688720517924473
5.690947133457789
5.690720760299322
5.692946985276054
5.692721002528862
5.694946837239525
5.694721244613257
5.696946689348021
5.696721486552711
5.698946541601443
5.698721728347334
5.700946393999609
5.700721969997279
5.702946246542372
5.702722211502674
5.704946099229583
5.704722452863747
5.706945952061078
5.706722694080567
5.708945805036733
5.708722935153329
5.710945658156394
5.710723176082156
5.712945511419881
5.712723416867218
5.714945364827079
5.714723657508664
5.716945218377803
5.716723898006645
5.718945072071915
5.718724138361289
5.720944925909287
5.720724378572785
5.722944779889766
5.722724618641246
5.724944634013185
5.724724858566827
5.726944488279404
5.726725098349678
5.728944342688276
5.728725337989987
5.73094419723964
5.7307255774878305
5.732944051933382
5.732725816843405
5.734943906769309
5.734726056056849
5.736943761747306
5.7367262951283005
5.738943616867217
5.73872653405792
5.740943472128873
5.740726772845828
5.742943327532167
5.742727011492224
5.744943183076911
5.744727249997209
5.746943038762989
5.746727488360972
5.74894289459025
5.748727726583596
5.750942750558535
5.7507279646652725
5.75294260666771
5.75272820260613
5.754942462917635
5.754728440406312
5.75694231930812
5.756728678066016
5.758942175839085
5.758728915585299
5.760942032510328
5.760729152964391
5.762941889321738
5.762729390203379
5.764941746273159
5.764729627302428
5.766941603364462
5.766729864261668
5.768941460595475
5.76873010108127
5.770941317966068
5.770730337761369
5.772941175476101
5.772730574302109
5.774941033125424
5.774730810703612
5.776940890913888
5.776731046966047
5.778940748841354
5.778731283089548
5.78094060690771
5.780731519074261
5.782940465112744
5.7827317549203014
5.784940323456389
5.784731990627872
5.786940181938441
5.786732226197088
5.788940040558781
5.788732461628062
5.790939899317301
5.790732696920964
5.792939758213801
5.7927329320759515
5.794939617248158
5.794733167093105
5.796939476420258
5.79673340197264
5.79893933572993
5.798733636714641
5.800939195177028
5.800733871319302
5.8029390547614375
5.802734105786716
5.804938914483016
5.804734340117055
5.806938774341599
5.806734574310425
5.80893863433706
5.808734808367009
5.810938494469255
5.810735042286919
5.812938354738046
5.812735276070314
5.814938215143292
5.8147355097173
5.816938075684858
5.816735743228067
5.81893793636259
5.818735976602704
5.82093779717638
5.820736209841385
5.8229376581260635
5.8227364429442305
5.824937519211496
5.824736675911383
5.826937380432546
5.826736908742995
5.828937241789106
5.828737141439202
5.830937103280962
5.830737374000109
5.832936964908064
5.832737606425899
5.834936826670223
5.834737838716678
5.836936688567304
5.836738070872598
5.838936550599196
5.838738302893799
5.840936412765726
5.840738534780411
5.842936275066775
5.842738766532578
5.844936137502204
5.844738998150427
5.84693600007189
5.84673922963409
5.848935862775675
5.848739460983757
5.850935725613426
5.850739692199477
5.852935588585007
5.852739923281456
5.854935451690304
5.8547401542297965
5.85693531492914
5.856740385044641
5.858935178301406
5.858740615726132
5.860935041806982
5.8607408462743935
5.8629349054457025
5.862741076689584
5.8649347692174265
5.864741306971782
5.866934633122068
5.8667415371211975
5.868934497159446
5.868741767137919
5.870934361329427
5.870741997022106
5.8729342256319015
5.87274222677386
5.874934090066731
5.874742456393335
5.876933954633756
5.876742685880685
5.878933819332863
5.878742915236006
5.880933684163917
5.880743144459449
5.882933549126787
5.88274337355116
5.884933414221338
5.884743602511247
5.886933279447431
5.8867438313398415
5.888933144804935
5.888744060037107
5.890933010293726
5.890744288603141
5.8929328759136395
5.892744517038126
5.894932741664588
5.8947447453421375
5.896932607546419
5.8967449735153386
5.898932473559014
5.898745201557857
5.90093233970221
5.900745429469836
5.902932205975891
5.902745657251379
5.904932072379922
5.904745884902647
5.906931938914183
5.906746112423746
5.90893180557854
5.908746339814813
5.910931672372856
5.910746567075984
5.912931539296997
5.912746794207398
5.91493140635085
5.91474702120919
5.916931273534259
5.916747248081444
5.918931140847115
5.918747474824346
5.920931008289279
5.920747701438011
5.922930875860618
5.922747927922555
5.924930743560995
5.924748154278093
5.926930611390319
5.926748380504815
5.928930479348415
5.928748606602771
5.930930347435189
5.93074883257217
5.9329302156504715
5.932749058413081
5.934930083994158
5.934749284125638
5.936929952466142
5.936749509710009
5.938929821066258
5.938749735166274
5.940929689794383
5.940749960494624
5.942929558650426
5.942750185695126
5.944929427634205
5.944750410767932
5.946929296745609
5.946750635713186
5.948929165984534
5.94875086053097
5.950929035350835
5.950751085221446
5.952928904844392
5.952751309784736
5.9549287744650625
5.954751534220971
5.9569286442127325
5.956751758530283
5.9589285140872805
5.958751982712772
5.960928384088573
5.9607522067685865
5.962928254216472
5.962752430697835
5.96492812447087
5.9647526545007
5.966927994851621
5.966752878177212
5.968927865358609
5.968753101727561
5.970927735991719
5.9707533251518825
5.972927606750808
5.9727535484502665
5.974927477635744
5.974753771622857
5.976927348646457
5.976753994669766
5.978927219782753
5.978754217591135
5.980927091044533
5.980754440387075
5.9829269624317
5.982754663057702
5.9849268339440655
5.984754885603175
5.986926705581568
5.986755108023604
5.988926577344062
5.988755330319084
5.9909264492314005
5.9907555524897775
5.992926321243476
5.992755774535812
5.9949261933801985
5.994755996457254
5.996926065641369
5.996756218254291
5.9989259380269475
5.9987564399269955
6.000925810536759
6.000756661475543
6.002925683170688
6.002756882900024
6.004925555928619
6.004757104200584
6.006925428810407
6.00675732537729
6.008925301815975
6.008757546430321
6.010925174945184
6.01075776735978
6.01292504819786
6.012757988165816
6.014924921573951
6.014758208848477
6.016924795073307
6.0167584294079886
6.018924668695796
6.01875864984438
6.02092454244132
6.020758870157824
6.022924416309737
6.022759090348428
6.024924290300932
6.024759310416316
6.026924164414786
6.026759530361591
6.0289240386511525
6.0287597501844274
6.030923913009984
6.0307599698848655
6.032923787491075
6.032760189463103
6.034923662094344
6.034760408919207
6.0369235368196765
6.03676062825331
6.038923411666939
6.038760847465578
6.04092328663601
6.040761066556051
6.04292316172677
6.042761285524901
6.044923036939107
6.044761504372238
6.046922912272909
6.04676172309819
6.048922787728029
6.048761941702849
6.050922663304392
6.050762160186379
6.0529225390018215
6.052762378548854
6.054922414820248
6.054762596790416
6.056922290759532
6.056762814911166
6.058922166819537
6.058763032911259
6.060922043000168
6.06076325079077
6.062921919301325
6.062763468549835
6.064921795722856
6.064763686188592
6.066921672264659
6.066763903707139
6.068921548926599
6.068764121105567
6.070921425708576
6.070764338384066
6.072921302610459
6.072764555542666
6.074921179632153
6.074764772581564
6.076921056773518
6.076764989500815
6.078920934034467
6.078765206300576
6.080920811414843
6.080765422980936
6.082920688914533
6.08276563954204
6.084920566533458
6.08476585598398
6.086920444271465
6.086766072306899
6.08892032212846
6.088766288510861
6.090920200104314
6.090766504596045
6.0929200781989055
6.092766720562549
6.0949199564121335
6.094766936410467
6.096919834743879
6.09676715213992
6.098919713194044
6.098767367751038
6.100919591762482
6.100767583243928
6.102919470449074
6.102767798618707
6.104919349253729
6.104768013875482
6.1069192281763645
6.1067682290143805
6.108919107216747
6.108768444035526
6.110918986374896
6.110768658939012
6.1129188656506255
6.11276887372495
6.114918745043835
6.114769088393442
6.116918624554412
6.116769302944663
6.118918504182246
6.118769517378674
6.120918383927205
6.12076973169562
6.122918263789194
6.122769945895578
6.124918143768103
6.124770159978673
6.126918023863817
6.1267703739450345
6.128917904076209
6.1287705877947545
6.130917784405155
6.130770801527985
6.132917664850586
6.1327710151448045
6.1349175454123355
6.134771228645327
6.1369174260903465
6.136771442029674
6.1389173068844745
6.138771655297957
6.140917187794605
6.1407718684502655
6.142917068820637
6.142772081486769
6.144916949962451
6.144772294407534
6.146916831219929
6.146772507212668
6.1489167125929765
6.148772719902324
6.150916594081461
6.150772932476564
6.1529164756852746
6.1527731449355345
6.15491635740435
6.154773357279306
6.156916239238528
6.15677356950807
6.158916121187699
6.158773781621864
6.160916003251759
6.1607739936208
6.162915885430615
6.162774205505035
6.164915767724142
6.16477441727464
6.16691565013221
6.166774628929747
6.168915532654739
6.168774840470456
6.170915415291619
6.170775051896889
6.172915298042726
6.172775263209109
6.1749151809079486
6.17477547440733
6.176915063887171
6.176775685491533
6.17891494698031
6.178775896461929
6.180914830187232
6.1807761073185725
6.182914713507835
6.182776318061582
6.1849145969420025
6.184776528691097
6.186914480489655
6.18677673920718
6.188914364150646
6.188776949609955
6.190914247924879
6.190777159899566
6.19291413181226
6.192777370076083
6.1949140158126825
6.194777580139632
6.196913899926007
6.1967777900903
6.198913784152144
6.198777999928221
6.200913668490995
6.200778209653484
6.202913552942417
6.202778419266216
6.2049134375063515
6.204778628766509
6.206913322182663
6.206778838154502
6.208913206971242
6.2087790474302285
6.210913091871991
6.210779256593863
6.212912976884794
6.212779465645487
6.214912862009553
6.214779674585218
6.216912747246139
6.216779883413184
6.218912632594488
6.218780092129421
6.220912518054452
6.220780300734115
6.222912403625955
6.222780509227307
6.224912289308866
6.224780717609152
6.226912175103071
6.226780925879751
6.228912061008512
6.228781134039191
6.2309119470250245
6.230781342087565
6.232911833152548
6.232781550025033
6.234911719390955
6.2347817578516285
6.236911605740129
6.236781965567516
6.238911492200018
6.238782173172767
6.240911378770435
6.240782380667512
6.242911265451347
6.242782588051853
6.2449111522426
6.244782795325879
6.246911039144119
6.2467830024896855
6.248910926155784
6.248783209543404
6.250910813277503
6.250783416487137
6.252910700509162
6.252783623320969
6.254910587850651
6.254783830045016
6.256910475301894
6.256784036659382
6.258910362862732
6.258784243164163
6.260910250533126
6.260784449559474
6.262910138312916
6.262784655845438
6.2649100262020365
6.264784862022123
6.266909914200378
6.266785068089639
6.268909802307828
6.2687852740480965
6.27090969052428
6.270785479897612
6.272909578849641
6.272785685638266
6.274909467283778
6.274785891270158
6.276909355826655
6.276786096793432
6.278909244478097
6.278786302208134
6.280909133238057
6.280786507514406
6.2829090221063675
6.282786712712366
6.284908911082988
6.284786917802057
6.286908800167808
6.286787122783626
6.288908689360675
6.288787327657151
6.290908578661552
6.290787532422735
6.292908468070308
6.2927877370805225
6.294908357586829
6.2947879416305685
6.296908247211014
6.296788146072999
6.298908136942809
6.298788350407884
6.300908026782067
6.300788554635377
6.302907916728684
6.30278875875554
6.304907806782558
6.304788962768442
6.306907696943635
6.30678916667427
6.308907587211754
6.30878937047308
6.310907477586865
6.31078957416494
6.312907368068817
6.312789777750019
6.314907258657571
6.314789981228361
6.316907149352962
6.316790184600103
6.318907040154925
6.318790387865308
6.32090693106335
6.320790591024083
6.322906822078165
6.322790794076571
6.324906713199219
6.324790997022842
6.326906604426442
6.326791199862978
6.328906495759753
6.328791402597117
6.330906387199032
6.3307916052253095
6.332906278744157
6.332791807747709
6.334906170395071
6.334792010164366
6.336906062151646
6.336792212475429
6.338905954013789
6.3387924146809596
6.340905845981401
6.340792616781067
6.342905738054386
6.342792818775847
6.344905630232674
6.344793020665401
6.346905522516094
6.346793222449848
6.348905414904634
6.348793424129237
6.350905307398132
6.35079362570371
6.352905199996515
6.35279382717333
6.354905092699695
6.354794028538214
6.356904985507555
6.356794229798497
6.358904878419977
6.3587944309542115
6.360904771436924
6.360794632005482
6.362904664558275
6.362794832952419
6.364904557783884
6.364795033795124
6.366904451113711
6.366795234533647
6.36890434454763
6.36879543516813
6.370904238085549
6.370795635698665
6.372904131727398
6.372795836125334
6.374904025473051
6.3747960364482275
6.376903919322423
6.3767962366674595
6.3789038132754055
6.378796436783129
6.380903707331902
6.380796636795324
6.382903601491845
6.38279683670412
6.384903495755097
6.384797036509669
6.386903390121594
6.386797236212003
6.388903284591238
6.388797435811257
6.390903179163911
6.390797635307527
6.3929030738395465
6.3927978347008905
6.394902968617993
6.394798033991457
6.396902863499229
6.396798233179318
6.398902758483137
6.398798432264538
6.400902653569575
6.40079863124728
6.402902548758499
6.402798830127569
6.404902444049803
6.404799028905553
6.40690233944338
6.406799227581292
6.408902234939141
6.408799426154902
6.4109021305369795
6.41079962462645
6.412902026236861
6.41279982299604
6.41490192203862
6.414800021263797
6.416901817942174
6.416800219429798
6.418901713947457
6.4188004174941184
6.420901610054352
6.420800615456855
6.422901506262758
6.422800813318136
6.424901402572639
6.424801011078017
6.426901298983817
6.426801208736624
6.428901195496267
6.428801406294009
6.430901092109863
6.430801603750303
6.432900988824516
6.4328018011055885
6.434900885640115
6.434801998359944
6.436900782556622
6.436802195513475
6.438900679573897
6.438802392566267
6.440900576691848
6.44080258951842
6.442900473910393
6.442802786370042
6.444900371229443
6.444802983121204
6.446900268648903
6.446803179771984
6.448900166168695
6.448803376322497
6.450900063788683
6.450803572772842
6.4528999615088285
6.452803769123105
6.454899859328992
6.454803965373374
6.456899757249131
6.456804161523724
6.458899655269111
6.458804357574289
6.460899553388848
6.460804553525113
6.46289945160827
6.462804749376316
6.464899349927265
6.464804945127972
6.466899248345764
6.466805140780192
6.468899146863656
6.468805336333064
6.470899045480865
6.470805531786662
6.47289894419728
6.472805727141085
6.474898843012832
6.474805922396442
6.476898741927407
6.476806117552796
6.478898640940945
6.478806312610258
6.480898540053311
6.480806507568891
6.482898439264476
6.482806702428816
6.484898338574287
6.484806897190133
6.486898237982703
6.486807091852895
6.488898137489594
6.488807286417194
6.49089803709489
6.490807480883154
6.49289793679852
6.492807675250837
6.494897836600353
6.494807869520337
