time/input_data/output_state/rest/grip/hold/release
4,995899200439453/1,1756776571273804/0/0,8115610480308533/0,002417540643364191/0,12647999823093414/0,059541430324316025
4,995899200439453/1,166312575340271/0/0,8115610480308533/0,002417540643364191/0,12647999823093414/0,059541430324316025
4,995899200439453/1,1648718118667603/0/0,8115610480308533/0,002417540643364191/0,12647999823093414/0,059541430324316025
4,995899200439453/1,1526252031326294/0/0,8115610480308533/0,002417540643364191/0,12647999823093414/0,059541430324316025
4,995899200439453/1,2109768390655518/0/0,8115610480308533/0,002417540643364191/0,12647999823093414/0,059541430324316025
4,995899200439453/1,1756776571273804/0/0,8115610480308533/0,002417540643364191/0,12647999823093414/0,059541430324316025
4,995899200439453/1,117326021194458/0/0,8115610480308533/0,002417540643364191/0,12647999823093414/0,059541430324316025
4,995899200439453/1,1317338943481445/0/0,8115610480308533/0,002417540643364191/0,12647999823093414/0,059541430324316025
4,995899200439453/1,1511844396591187/0/0,8115610480308533/0,002417540643364191/0,12647999823093414/0,059541430324316025
4,995899200439453/1,1454212665557861/0/0,8115610480308533/0,002417540643364191/0,12647999823093414/0,059541430324316025
4,995899200439453/1,1389377117156982/0/0,8115610480308533/0,002417540643364191/0,12647999823093414/0,059541430324316025
4,995899200439453/1,1735165119171143/0/0,8115610480308533/0,002417540643364191/0,12647999823093414/0,059541430324316025
4,995899200439453/1,1447008848190308/0/0,8115610480308533/0,002417540643364191/0,12647999823093414/0,059541430324316025
4,995899200439453/1,10003662109375/0/0,8115610480308533/0,002417540643364191/0,12647999823093414/0,059541430324316025
4,995899200439453/1,1223688125610352/0/0,8115610480308533/0,002417540643364191/0,12647999823093414/0,059541430324316025
4,995899200439453/1,1194871664047241/0/0,8115610480308533/0,002417540643364191/0,12647999823093414/0,059541430324316025
4,995899200439453/1,106520175933838/0/0,8115610480308533/0,002417540643364191/0,12647999823093414/0,059541430324316025
4,995899200439453/1,1115628480911255/0/0,8115610480308533/0,002417540643364191/0,12647999823093414/0,059541430324316025
4,995899200439453/1,117326021194458/0/0,8115610480308533/0,002417540643364191/0,12647999823093414/0,059541430324316025
4,995899200439453/1,1187667846679688/0/0,8115610480308533/0,002417540643364191/0,12647999823093414/0,059541430324316025
4,995899200439453/1,1619902849197388/0/0,8115610480308533/0,002417540643364191/0,12647999823093414/0,059541430324316025
4,995899200439453/1,1792796850204468/0/0,8115610480308533/0,002417540643364191/0,12647999823093414/0,059541430324316025
4,995899200439453/1,094273567199707/0/0,8115610480308533/0,002417540643364191/0,12647999823093414/0,059541430324316025
4,995899200439453/1,2397924661636353/0/0,8115610480308533/0,002417540643364191/0,12647999823093414/0,059541430324316025
4,995899200439453/0,0007203907589428127/0/0,8115610480308533/0,002417540643364191/0,12647999823093414/0,059541430324316025
4,995899200439453/1,2981441020965576/0/0,8115610480308533/0,002417540643364191/0,12647999823093414/0,059541430324316025
4,995899200439453/1,3031867742538452/0/0,8115610480308533/0,002417540643364191/0,12647999823093414/0,059541430324316025
4,995899200439453/1,3204761743545532/0/0,8115610480308533/0,002417540643364191/0,12647999823093414/0,059541430324316025
4,995899200439453/1,3089499473571777/0/0,8115610480308533/0,002417540643364191/0,12647999823093414/0,059541430324316025
4,995899200439453/1,2268253564834595/0/0,8115610480308533/0,002417540643364191/0,12647999823093414/0,059541430324316025
4,995899200439453/1,2952625751495361/0/0,8115610480308533/0,002417540643364191/0,12647999823093414/0,059541430324316025
4,995899200439453/1,3399267196655273/0/0,8115610480308533/0,002417540643364191/0,12647999823093414/0,059541430324316025
4,995899200439453/1,4278143644332886/0/0,8115610480308533/0,002417540643364191/0,12647999823093414/0,059541430324316025
4,995899200439453/1,4847253561019897/0/0,8115610480308533/0,002417540643364191/0,12647999823093414/0,059541430324316025
4,995899200439453/1,4998536109924316/0/0,8115610480308533/0,002417540643364191/0,12647999823093414/0,059541430324316025
4,995899200439453/1,4861661195755005/0/0,8115610480308533/0,002417540643364191/0,12647999823093414/0,059541430324316025
4,995899200439453/1,4724786281585693/0/0,8115610480308533/0,002417540643364191/0,12647999823093414/0,059541430324316025
4,995899200439453/1,4220513105392456/0/0,8115610480308533/0,002417540643364191/0,12647999823093414/0,059541430324316025
4,995899200439453/1,3838706016540527/0/0,8115610480308533/0,002417540643364191/0,12647999823093414/0,059541430324316025
4,995899200439453/1,373785138130188/0/0,8115610480308533/0,002417540643364191/0,12647999823093414/0,059541430324316025
4,995899200439453/0,13183151185512543/0/0,8115610480308533/0,002417540643364191/0,12647999823093414/0,059541430324316025
4,995899200439453/1,339206337928772/0/0,8115610480308533/0,002417540643364191/0,12647999823093414/0,059541430324316025
4,995899200439453/1,2916605472564697/0/0,8115610480308533/0,002417540643364191/0,12647999823093414/0,059541430324316025
4,995899200439453/1,2822954654693604/0/0,8115610480308533/0,002417540643364191/0,12647999823093414/0,059541430324316025
4,995899200439453/1,2686080932617188/0/0,8115610480308533/0,002417540643364191/0,12647999823093414/0,059541430324316025
4,995899200439453/1,3204761743545532/0/0,8115610480308533/0,002417540643364191/0,12647999823093414/0,059541430324316025
4,995899200439453/1,258522629737854/0/0,8115610480308533/0,002417540643364191/0,12647999823093414/0,059541430324316025
4,995899200439453/1,1497435569763184/0/0,8115610480308533/0,002417540643364191/0,12647999823093414/0,059541430324316025
4,995899200439453/1,1699146032333374/0/0,8115610480308533/0,002417540643364191/0,12647999823093414/0,059541430324316025
4,995899200439453/1,2116972208023071/0/0,8115610480308533/0,002417540643364191/0,12647999823093414/0,059541430324316025
4,995899200439453/1,223943829536438/0/0,8115610480308533/0,002417540643364191/0,12647999823093414/0,059541430324316025
4,995899200439453/1,2116972208023071/0/0,8115610480308533/0,002417540643364191/0,12647999823093414/0,059541430324316025
4,995899200439453/1,2016117572784424/0/0,8115610480308533/0,002417540643364191/0,12647999823093414/0,059541430324316025
4,995899200439453/1,1655921936035156/0/0,8115610480308533/0,002417540643364191/0,12647999823093414/0,059541430324316025
4,995899200439453/1,141098976135254/0/0,8115610480308533/0,002417540643364191/0,12647999823093414/0,059541430324316025
4,995899200439453/1,1317338943481445/0/0,8115610480308533/0,002417540643364191/0,12647999823093414/0,059541430324316025
4,995899200439453/1,1338950395584106/0/0,8115610480308533/0,002417540643364191/0,12647999823093414/0,059541430324316025
4,995899200439453/1,1338950395584106/0/0,8115610480308533/0,002417540643364191/0,12647999823093414/0,059541430324316025
4,995899200439453/1,1483027935028076/0/0,8115610480308533/0,002417540643364191/0,12647999823093414/0,059541430324316025
4,995899200439453/1,1425397396087646/0/0,8115610480308533/0,002417540643364191/0,12647999823093414/0,059541430324316025
4,995899200439453/1,1245299577713013/0/0,8115610480308533/0,002417540643364191/0,12647999823093414/0,059541430324316025
4,995899200439453/1,1288522481918335/0/0,8115610480308533/0,002417540643364191/0,12647999823093414/0,059541430324316025
4,995899200439453/1,1295726299285889/0/0,8115610480308533/0,002417540643364191/0,12647999823093414/0,059541430324316025
4,995899200439453/1,102918267250061/0/0,8115610480308533/0,002417540643364191/0,12647999823093414/0,059541430324316025
4,995899200439453/1,1627106666564941/0/0,8115610480308533/0,002417540643364191/0,12647999823093414/0,059541430324316025
4,995899200439453/1,1569474935531616/0/0,8115610480308533/0,002417540643364191/0,12647999823093414/0,059541430324316025
4,995899200439453/1,0207936763763428/0/0,8115610480308533/0,002417540643364191/0,12647999823093414/0,059541430324316025
4,995899200439453/1,051050066947937/0/0,8115610480308533/0,002417540643364191/0,12647999823093414/0,059541430324316025
4,995899200439453/1,059694766998291/0/0,8115610480308533/0,002417540643364191/0,12647999823093414/0,059541430324316025
4,995899200439453/1,0560928583145142/0/0,8115610480308533/0,002417540643364191/0,12647999823093414/0,059541430324316025
4,995899200439453/1,0611355304718018/0/0,8115610480308533/0,002417540643364191/0,12647999823093414/0,059541430324316025
4,995899200439453/1,0668987035751343/0/0,8115610480308533/0,002417540643364191/0,12647999823093414/0,059541430324316025
4,995899200439453/1,059694766998291/0/0,8115610480308533/0,002417540643364191/0,12647999823093414/0,059541430324316025
4,995899200439453/1,0546520948410034/0/0,8115610480308533/0,002417540643364191/0,12647999823093414/0,059541430324316025
4,995899200439453/1,068339467048645/0/0,8115610480308533/0,002417540643364191/0,12647999823093414/0,059541430324316025
4,995899200439453/1,0647375583648682/0/0,8115610480308533/0,002417540643364191/0,12647999823093414/0,059541430324316025
4,995899200439453/1,057533621788025/0/0,8115610480308533/0,002417540643364191/0,12647999823093414/0,059541430324316025
4,995899200439453/1,076984167098999/0/0,8115610480308533/0,002417540643364191/0,12647999823093414/0,059541430324316025
4,995899200439453/1,0921123027801514/0/0,8115610480308533/0,002417540643364191/0,12647999823093414/0,059541430324316025
4,995899200439453/1,085628867149353/0/0,8115610480308533/0,002417540643364191/0,12647999823093414/0,059541430324316025
4,995899200439453/1,0985958576202393/0/0,8115610480308533/0,002417540643364191/0,12647999823093414/0,059541430324316025
4,995899200439453/1,1158852577209473/0/0,8115610480308533/0,002417540643364191/0,12647999823093414/0,059541430324316025
4,995899200439453/1,125970721244812/0/0,8115610480308533/0,002417540643364191/0,12647999823093414/0,059541430324316025
4,995899200439453/1,076984167098999/0/0,8115610480308533/0,002417540643364191/0,12647999823093414/0,059541430324316025
4,995899200439453/1,1014773845672607/0/0,8115610480308533/0,002417540643364191/0,12647999823093414/0,059541430324316025
4,995899200439453/1,1108424663543701/0/0,8115610480308533/0,002417540643364191/0,12647999823093414/0,059541430324316025
4,995899200439453/1,1043590307235718/0/0,8115610480308533/0,002417540643364191/0,12647999823093414/0,059541430324316025
4,995899200439453/1,115164875984192/0/0,8115610480308533/0,002417540643364191/0,12647999823093414/0,059541430324316025
4,995899200439453/1,1115628480911255/0/0,8115610480308533/0,002417540643364191/0,12647999823093414/0,059541430324316025
4,995899200439453/1,1526252031326294/0/0,8115610480308533/0,002417540643364191/0,12647999823093414/0,059541430324316025
4,995899200439453/1,1230891942977905/0/0,8115610480308533/0,002417540643364191/0,12647999823093414/0,059541430324316025
4,995899200439453/1,0813064575195312/0/0,8115610480308533/0,002417540643364191/0,12647999823093414/0,059541430324316025
4,995899200439453/1,0935531854629517/0/0,8115610480308533/0,002417540643364191/0,12647999823093414/0,059541430324316025
4,995899200439453/1,0762637853622437/0/0,8115610480308533/0,002417540643364191/0,12647999823093414/0,059541430324316025
4,995899200439453/1,0841881036758423/0/0,8115610480308533/0,002417540643364191/0,12647999823093414/0,059541430324316025
4,995899200439453/1,1050794124603271/0/0,8115610480308533/0,002417540643364191/0,12647999823093414/0,059541430324316025
4,995899200439453/1,115164875984192/0/0,8115610480308533/0,002417540643364191/0,12647999823093414/0,059541430324316025
4,995899200439453/1,0949939489364624/0/0,8115610480308533/0,002417540643364191/0,12647999823093414/0,059541430324316025
4,995899200439453/1,1036386489868164/0/0,8115610480308533/0,002417540643364191/0,12647999823093414/0,059541430324316025
4,995899200439453/1,1252503395080566/0/0,8115610480308533/0,002417540643364191/0,12647999823093414/0,059541430324316025
4,995899200439453/1,1382173299789429/0/0,8115610480308533/0,002417540643364191/0,12647999823093414/0,059541430324316025
4,995899200439453/1,1648718118667603/0/0,8115610480308533/0,002417540643364191/0,12647999823093414/0,059541430324316025
4,995899200439453/1,1720757484436035/0/0,8115610480308533/0,002417540643364191/0,12647999823093414/0,059541430324316025
4,995899200439453/1,1252503395080566/0/0,8115610480308533/0,002417540643364191/0,12647999823093414/0,059541430324316025
4,995899200439453/1,125970721244812/0/0,8115610480308533/0,002417540643364191/0,12647999823093414/0,059541430324316025
4,995899200439453/1,1245299577713013/0/0,8115610480308533/0,002417540643364191/0,12647999823093414/0,059541430324316025
4,995899200439453/1,123809576034546/0/0,8115610480308533/0,002417540643364191/0,12647999823093414/0,059541430324316025
4,995899200439453/1,1158852577209473/0/0,8115610480308533/0,002417540643364191/0,12647999823093414/0,059541430324316025
4,995899200439453/1,108681321144104/0/0,8115610480308533/0,002417540643364191/0,12647999823093414/0,059541430324316025
4,995899200439453/1,1043590307235718/0/0,8115610480308533/0,002417540643364191/0,12647999823093414/0,059541430324316025
4,995899200439453/1,082747220993042/0/0,8115610480308533/0,002417540643364191/0,12647999823093414/0,059541430324316025
4,995899200439453/1,0690598487854004/0/0,8115610480308533/0,002417540643364191/0,12647999823093414/0,059541430324316025
4,995899200439453/1,0892307758331299/0/0,8115610480308533/0,002417540643364191/0,12647999823093414/0,059541430324316025
4,995899200439453/1,1447008848190308/0/0,8115610480308533/0,002417540643364191/0,12647999823093414/0,059541430324316025
4,995899200439453/1,0625762939453125/0/0,8115610480308533/0,002417540643364191/0,12647999823093414/0,059541430324316025
4,995899200439453/1,0755434036254883/0/0,8115610480308533/0,002417540643364191/0,12647999823093414/0,059541430324316025
4,995899200439453/1,0964347124099731/0/0,8115610480308533/0,002417540643364191/0,12647999823093414/0,059541430324316025
4,995899200439453/1,0899511575698853/0/0,8115610480308533/0,002417540643364191/0,12647999823093414/0,059541430324316025
4,995899200439453/1,0971550941467285/0/0,8115610480308533/0,002417540643364191/0,12647999823093414/0,059541430324316025
4,995899200439453/1,1281318664550781/0/0,8115610480308533/0,002417540643364191/0,12647999823093414/0,059541430324316025
4,995899200439453/1,1526252031326294/0/0,8115610480308533/0,002417540643364191/0,12647999823093414/0,059541430324316025
4,995899200439453/1,1706349849700928/0/0,8115610480308533/0,002417540643364191/0,12647999823093414/0,059541430324316025
4,995899200439453/1,1274114847183228/0/0,8115610480308533/0,002417540643364191/0,12647999823093414/0,059541430324316025
4,995899200439453/1,1591086387634277/0/0,8115610480308533/0,002417540643364191/0,12647999823093414/0,059541430324316025
4,995899200439453/1,1439805030822754/0/0,8115610480308533/0,002417540643364191/0,12647999823093414/0,059541430324316025
4,995899200439453/1,1562271118164062/0/0,8115610480308533/0,002417540643364191/0,12647999823093414/0,059541430324316025
4,995899200439453/1,1756776571273804/0/0,8115610480308533/0,002417540643364191/0,12647999823093414/0,059541430324316025
4,995899200439453/1,160549521446228/0/0,8115610480308533/0,002417540643364191/0,12647999823093414/0,059541430324316025
4,995899200439453/1,1778388023376465/0/0,8115610480308533/0,002417540643364191/0,12647999823093414/0,059541430324316025
4,995899200439453/1,1756776571273804/0/0,8115610480308533/0,002417540643364191/0,12647999823093414/0,059541430324316025
4,995899200439453/1,1641514301300049/0/0,8115610480308533/0,002417540643364191/0,12647999823093414/0,059541430324316025
4,995899200439453/1,209536075592041/0/0,8115610480308533/0,002417540643364191/0,12647999823093414/0,059541430324316025
4,995899200439453/1,1735165119171143/0/0,8115610480308533/0,002417540643364191/0,12647999823093414/0,059541430324316025
4,995899200439453/1,1418193578720093/0/0,8115610480308533/0,002417540643364191/0,12647999823093414/0,059541430324316025
4,995899200439453/1,1533455848693848/0/0,8115610480308533/0,002417540643364191/0,12647999823093414/0,059541430324316025
4,995899200439453/1,1461416482925415/0/0,8115610480308533/0,002417540643364191/0,12647999823093414/0,059541430324316025
4,995899200439453/1,149023175239563/0/0,8115610480308533/0,002417540643364191/0,12647999823093414/0,059541430324316025
4,995899200439453/1,14326012134552/0/0,8115610480308533/0,002417540643364191/0,12647999823093414/0,059541430324316025
4,995899200439453/1,1547863483428955/0/0,8115610480308533/0,002417540643364191/0,12647999823093414/0,059541430324316025
4,995899200439453/1,149023175239563/0/0,8115610480308533/0,002417540643364191/0,12647999823093414/0,059541430324316025
4,995899200439453/1,1677533388137817/0/0,8115610480308533/0,002417540643364191/0,12647999823093414/0,059541430324316025
4,995899200439453/1,1014773845672607/0/0,8115610480308533/0,002417540643364191/0,12647999823093414/0,059541430324316025
4,995899200439453/1,1144444942474365/0/0,8115610480308533/0,002417540643364191/0,12647999823093414/0,059541430324316025
4,995899200439453/1,1194871664047241/0/0,8115610480308533/0,002417540643364191/0,12647999823093414/0,059541430324316025
4,995899200439453/1,1266911029815674/0/0,8115610480308533/0,002417540643364191/0,12647999823093414/0,059541430324316025
4,995899200439453/1,1353358030319214/0/0,8115610480308533/0,002417540643364191/0,12647999823093414/0,059541430324316025
4,995899200439453/1,1475824117660522/0/0,8115610480308533/0,002417540643364191/0,12647999823093414/0,059541430324316025
4,995899200439453/1,1461416482925415/0/0,8115610480308533/0,002417540643364191/0,12647999823093414/0,059541430324316025
4,995899200439453/1,149023175239563/0/0,8115610480308533/0,002417540643364191/0,12647999823093414/0,059541430324316025
4,995899200439453/1,1367765665054321/0/0,8115610480308533/0,002417540643364191/0,12647999823093414/0,059541430324316025
4,995899200439453/1,123809576034546/0/0,8115610480308533/0,002417540643364191/0,12647999823093414/0,059541430324316025
4,995899200439453/1,1331746578216553/0/0,8115610480308533/0,002417540643364191/0,12647999823093414/0,059541430324316025
4,995899200439453/1,1338950395584106/0/0,8115610480308533/0,002417540643364191/0,12647999823093414/0,059541430324316025
4,995899200439453/1,140378475189209/0/0,8115610480308533/0,002417540643364191/0,12647999823093414/0,059541430324316025
4,995899200439453/1,1893651485443115/0/0,8115610480308533/0,002417540643364191/0,12647999823093414/0,059541430324316025
4,995899200439453/1,1497435569763184/0/0,8115610480308533/0,002417540643364191/0,12647999823093414/0,059541430324316025
4,995899200439453/1,094273567199707/0/0,8115610480308533/0,002417540643364191/0,12647999823093414/0,059541430324316025
4,995899200439453/1,1101220846176147/0/0,8115610480308533/0,002417540643364191/0,12647999823093414/0,059541430324316025
4,995899200439453/1,1547863483428955/0/0,8115610480308533/0,002417540643364191/0,12647999823093414/0,059541430324316025
4,995899200439453/1,1396580934524536/0/0,8115610480308533/0,002417540643364191/0,12647999823093414/0,059541430324316025
4,995899200439453/1,1454212665557861/0/0,8115610480308533/0,002417540643364191/0,12647999823093414/0,059541430324316025
4,995899200439453/1,1533455848693848/0/0,8115610480308533/0,002417540643364191/0,12647999823093414/0,059541430324316025
4,995899200439453/1,1468620300292969/0/0,8115610480308533/0,002417540643364191/0,12647999823093414/0,059541430324316025
4,995899200439453/1,1569474935531616/0/0,8115610480308533/0,002417540643364191/0,12647999823093414/0,059541430324316025
4,995899200439453/1,1569474935531616/0/0,8115610480308533/0,002417540643364191/0,12647999823093414/0,059541430324316025
4,995899200439453/1,048888921737671/0/0,8115610480308533/0,002417540643364191/0,12647999823093414/0,059541430324316025
4,995899200439453/0,9833333492279053/0/0,8115610480308533/0,002417540643364191/0,12647999823093414/0,059541430324316025
4,995899200439453/0,8925641179084778/0/0,8115610480308533/0,002417540643364191/0,12647999823093414/0,059541430324316025
4,995899200439453/1,1374969482421875/0/0,8115610480308533/0,002417540643364191/0,12647999823093414/0,059541430324316025
4,995899200439453/1,1310133934020996/0/0,8115610480308533/0,002417540643364191/0,12647999823093414/0,059541430324316025
4,995899200439453/1,1216484308242798/0/0,8115610480308533/0,002417540643364191/0,12647999823093414/0,059541430324316025
4,995899200439453/1,190085530281067/0/0,8115610480308533/0,002417540643364191/0,12647999823093414/0,059541430324316025
4,995899200439453/1,1850427389144897/0/0,8115610480308533/0,002417540643364191/0,12647999823093414/0,059541430324316025
4,995899200439453/1,1944078207015991/0/0,8115610480308533/0,002417540643364191/0,12647999823093414/0,059541430324316025
4,995899200439453/1,2124176025390625/0/0,8115610480308533/0,002417540643364191/0,12647999823093414/0,059541430324316025
4,995899200439453/1,20665442943573/0/0,8115610480308533/0,002417540643364191/0,12647999823093414/0,059541430324316025
4,995899200439453/1,2225030660629272/0/0,8115610480308533/0,002417540643364191/0,12647999823093414/0,059541430324316025
4,995899200439453/1,2333089113235474/0/0,8115610480308533/0,002417540643364191/0,12647999823093414/0,059541430324316025
4,995899200439453/1,2217826843261719/0/0,8115610480308533/0,002417540643364191/0,12647999823093414/0,059541430324316025
4,995899200439453/1,20665442943573/0/0,8115610480308533/0,002417540643364191/0,12647999823093414/0,059541430324316025
4,995899200439453/1,2160195112228394/0/0,8115610480308533/0,002417540643364191/0,12647999823093414/0,059541430324316025
4,995899200439453/1,2246642112731934/0/0,8115610480308533/0,002417540643364191/0,12647999823093414/0,059541430324316025
4,995899200439453/1,2268253564834595/0/0,8115610480308533/0,002417540643364191/0,12647999823093414/0,059541430324316025
4,995899200439453/1,2304273843765259/0/0,8115610480308533/0,002417540643364191/0,12647999823093414/0,059541430324316025
4,995899200439453/1,2304273843765259/0/0,8115610480308533/0,002417540643364191/0,12647999823093414/0,059541430324316025
4,995899200439453/1,2268253564834595/0/0,8115610480308533/0,002417540643364191/0,12647999823093414/0,059541430324316025
4,995899200439453/1,2419536113739014/0/0,8115610480308533/0,002417540643364191/0,12647999823093414/0,059541430324316025
4,995899200439453/1,2189011573791504/0/0,8115610480308533/0,002417540643364191/0,12647999823093414/0,059541430324316025
4,995899200439453/1,2578022480010986/0/0,8115610480308533/0,002417540643364191/0,12647999823093414/0,059541430324316025
4,995899200439453/1,2822954654693604/0/0,8115610480308533/0,002417540643364191/0,12647999823093414/0,059541430324316025
4,995899200439453/1,1627106666564941/0/0,8115610480308533/0,002417540643364191/0,12647999823093414/0,059541430324316025
4,995899200439453/1,174957275390625/0/0,8115610480308533/0,002417540643364191/0,12647999823093414/0,059541430324316025
4,995899200439453/1,183601975440979/0/0,8115610480308533/0,002417540643364191/0,12647999823093414/0,059541430324316025
4,995899200439453/1,1857631206512451/0/0,8115610480308533/0,002417540643364191/0,12647999823093414/0,059541430324316025
4,995899200439453/1,190085530281067/0/0,8115610480308533/0,002417540643364191/0,12647999823093414/0,059541430324316025
4,995899200439453/1,1785591840744019/0/0,8115610480308533/0,002417540643364191/0,12647999823093414/0,059541430324316025
4,995899200439453/1,183601975440979/0/0,8115610480308533/0,002417540643364191/0,12647999823093414/0,059541430324316025
4,995899200439453/1,1771184206008911/0/0,8115610480308533/0,002417540643364191/0,12647999823093414/0,059541430324316025
4,995899200439453/1,1670329570770264/0/0,8115610480308533/0,002417540643364191/0,12647999823093414/0,059541430324316025
4,995899200439453/1,1785591840744019/0/0,8115610480308533/0,002417540643364191/0,12647999823093414/0,059541430324316025
4,995899200439453/1,1591086387634277/0/0,8115610480308533/0,002417540643364191/0,12647999823093414/0,059541430324316025
4,995899200439453/1,174957275390625/0/0,8115610480308533/0,002417540643364191/0,12647999823093414/0,059541430324316025
4,995899200439453/1,1778388023376465/0/0,8115610480308533/0,002417540643364191/0,12647999823093414/0,059541430324316025
4,995899200439453/1,149023175239563/0/0,8115610480308533/0,002417540643364191/0,12647999823093414/0,059541430324316025
4,995899200439453/1,1504640579223633/0/0,8115610480308533/0,002417540643364191/0,12647999823093414/0,059541430324316025
4,995899200439453/1,2080953121185303/0/0,8115610480308533/0,002417540643364191/0,12647999823093414/0,059541430324316025
4,995899200439453/1,1627106666564941/0/0,8115610480308533/0,002417540643364191/0,12647999823093414/0,059541430324316025
4,995899200439453/1,1447008848190308/0/0,8115610480308533/0,002417540643364191/0,12647999823093414/0,059541430324316025
4,995899200439453/1,1418193578720093/0/0,8115610480308533/0,002417540643364191/0,12647999823093414/0,059541430324316025
4,995899200439453/1,1706349849700928/0/0,8115610480308533/0,002417540643364191/0,12647999823093414/0,059541430324316025
4,995899200439453/1,2109768390655518/0/0,8115610480308533/0,002417540643364191/0,12647999823093414/0,059541430324316025
4,995899200439453/1,1324542760849/0/0,8115610480308533/0,002417540643364191/0,12647999823093414/0,059541430324316025
4,995899200439453/1,1612699031829834/0/0,8115610480308533/0,002417540643364191/0,12647999823093414/0,059541430324316025
4,995899200439453/1,1735165119171143/0/0,8115610480308533/0,002417540643364191/0,12647999823093414/0,059541430324316025
4,995899200439453/1,1807204484939575/0/0,8115610480308533/0,002417540643364191/0,12647999823093414/0,059541430324316025
4,995899200439453/1,1994506120681763/0/0,8115610480308533/0,002417540643364191/0,12647999823093414/0,059541430324316025
4,995899200439453/1,190085530281067/0/0,8115610480308533/0,002417540643364191/0,12647999823093414/0,059541430324316025
4,995899200439453/1,2044932842254639/0/0,8115610480308533/0,002417540643364191/0,12647999823093414/0,059541430324316025
4,995899200439453/1,2318681478500366/0/0,8115610480308533/0,002417540643364191/0,12647999823093414/0,059541430324316025
4,995899200439453/1,223943829536438/0/0,8115610480308533/0,002417540643364191/0,12647999823093414/0,059541430324316025
4,995899200439453/1,232588529586792/0/0,8115610480308533/0,002417540643364191/0,12647999823093414/0,059541430324316025
4,995899200439453/1,2505983114242554/0/0,8115610480308533/0,002417540643364191/0,12647999823093414/0,059541430324316025
4,995899200439453/1,2664469480514526/0/0,8115610480308533/0,002417540643364191/0,12647999823093414/0,059541430324316025
4,995899200439453/1,292380928993225/0/0,8115610480308533/0,002417540643364191/0,12647999823093414/0,059541430324316025
4,995899200439453/1,2282662391662598/0/0,8115610480308533/0,002417540643364191/0,12647999823093414/0,059541430324316025
4,995899200439453/1,2333089113235474/0/0,8115610480308533/0,002417540643364191/0,12647999823093414/0,059541430324316025
4,995899200439453/1,2455555200576782/0/0,8115610480308533/0,002417540643364191/0,12647999823093414/0,059541430324316025
4,995899200439453/1,2549206018447876/0/0,8115610480308533/0,002417540643364191/0,12647999823093414/0,059541430324316025
4,995899200439453/1,2505983114242554/0/0,8115610480308533/0,002417540643364191/0,12647999823093414/0,059541430324316025
4,995899200439453/1,258522629737854/0/0,8115610480308533/0,002417540643364191/0,12647999823093414/0,059541430324316025
4,995899200439453/1,2967033386230469/0/0,8115610480308533/0,002417540643364191/0,12647999823093414/0,059541430324316025
4,995899200439453/1,2030525207519531/0/0,8115610480308533/0,002417540643364191/0,12647999823093414/0,059541430324316025
4,995899200439453/1,2023321390151978/0/0,8115610480308533/0,002417540643364191/0,12647999823093414/0,059541430324316025
4,995899200439453/1,2052136659622192/0/0,8115610480308533/0,002417540643364191/0,12647999823093414/0,059541430324316025
4,995899200439453/1,2052136659622192/0/0,8115610480308533/0,002417540643364191/0,12647999823093414/0,059541430324316025
4,995899200439453/1,209536075592041/0/0,8115610480308533/0,002417540643364191/0,12647999823093414/0,059541430324316025
4,995899200439453/1,198730230331421/0/0,8115610480308533/0,002417540643364191/0,12647999823093414/0,059541430324316025
4,995899200439453/1,1944078207015991/0/0,8115610480308533/0,002417540643364191/0,12647999823093414/0,059541430324316025
4,995899200439453/1,2297070026397705/0/0,8115610480308533/0,002417540643364191/0,12647999823093414/0,059541430324316025
4,995899200439453/1,166312575340271/0/0,8115610480308533/0,002417540643364191/0,12647999823093414/0,059541430324316025
4,995899200439453/1,160549521446228/0/0,8115610480308533/0,002417540643364191/0,12647999823093414/0,059541430324316025
4,995899200439453/1,1677533388137817/0/0,8115610480308533/0,002417540643364191/0,12647999823093414/0,059541430324316025
4,995899200439453/1,157667875289917/0/0,8115610480308533/0,002417540643364191/0,12647999823093414/0,059541430324316025
4,995899200439453/1,1396580934524536/0/0,8115610480308533/0,002417540643364191/0,12647999823093414/0,059541430324316025
4,995899200439453/1,1627106666564941/0/0,8115610480308533/0,002417540643364191/0,12647999823093414/0,059541430324316025
4,995899200439453/1,1338950395584106/0/0,8115610480308533/0,002417540643364191/0,12647999823093414/0,059541430324316025
4,995899200439453/1,1202075481414795/0/0,8115610480308533/0,002417540643364191/0,12647999823093414/0,059541430324316025
4,995899200439453/1,1310133934020996/0/0,8115610480308533/0,002417540643364191/0,12647999823093414/0,059541430324316025
4,995899200439453/1,1166056394577026/0/0,8115610480308533/0,002417540643364191/0,12647999823093414/0,059541430324316025
4,995899200439453/1,1202075481414795/0/0,8115610480308533/0,002417540643364191/0,12647999823093414/0,059541430324316025
4,995899200439453/1,1302930116653442/0/0,8115610480308533/0,002417540643364191/0,12647999823093414/0,059541430324316025
4,995899200439453/1,1166056394577026/0/0,8115610480308533/0,002417540643364191/0,12647999823093414/0,059541430324316025
4,995899200439453/1,1194871664047241/0/0,8115610480308533/0,002417540643364191/0,12647999823093414/0,059541430324316025
4,995899200439453/1,1187667846679688/0/0,8115610480308533/0,002417540643364191/0,12647999823093414/0,059541430324316025
4,995899200439453/1,1374969482421875/0/0,8115610480308533/0,002417540643364191/0,12647999823093414/0,059541430324316025
4,995899200439453/1,123809576034546/0/0,8115610480308533/0,002417540643364191/0,12647999823093414/0,059541430324316025
4,995899200439453/1,1972893476486206/0/0,8115610480308533/0,002417540643364191/0,12647999823093414/0,059541430324316025
4,995899200439453/1,166312575340271/0/0,8115610480308533/0,002417540643364191/0,12647999823093414/0,059541430324316025
4,995899200439453/1,0849084854125977/0/0,8115610480308533/0,002417540643364191/0,12647999823093414/0,059541430324316025
4,995899200439453/1,1216484308242798/0/0,8115610480308533/0,002417540643364191/0,12647999823093414/0,059541430324316025
4,995899200439453/1,1461416482925415/0/0,8115610480308533/0,002417540643364191/0,12647999823093414/0,059541430324316025
4,995899200439453/1,1396580934524536/0/0,8115610480308533/0,002417540643364191/0,12647999823093414/0,059541430324316025
4,995899200439453/1,1511844396591187/0/0,8115610480308533/0,002417540643364191/0,12647999823093414/0,059541430324316025
4,995899200439453/1,1706349849700928/0/0,8115610480308533/0,002417540643364191/0,12647999823093414/0,059541430324316025
4,995899200439453/1,1691941022872925/0/0,8115610480308533/0,002417540643364191/0,12647999823093414/0,059541430324316025
4,995899200439453/1,1540659666061401/0/0,8115610480308533/0,002417540643364191/0,12647999823093414/0,059541430324316025
4,995899200439453/1,1655921936035156/0/0,8115610480308533/0,002417540643364191/0,12647999823093414/0,059541430324316025
4,995899200439453/1,1792796850204468/0/0,8115610480308533/0,002417540643364191/0,12647999823093414/0,059541430324316025
4,995899200439453/1,157667875289917/0/0,8115610480308533/0,002417540643364191/0,12647999823093414/0,059541430324316025
4,995899200439453/1,1713553667068481/0/0,8115610480308533/0,002417540643364191/0,12647999823093414/0,059541430324316025
4,995899200439453/1,2088156938552856/0/0,8115610480308533/0,002417540643364191/0,12647999823093414/0,059541430324316025
4,995899200439453/1,14326012134552/0/0,8115610480308533/0,002417540643364191/0,12647999823093414/0,059541430324316025
4,995899200439453/1,1540659666061401/0/0,8115610480308533/0,002417540643364191/0,12647999823093414/0,059541430324316025
4,995899200439453/1,159829020500183/0/0,8115610480308533/0,002417540643364191/0,12647999823093414/0,059541430324316025
4,995899200439453/1,1670329570770264/0/0,8115610480308533/0,002417540643364191/0,12647999823093414/0,059541430324316025
4,995899200439453/1,2225030660629272/0/0,8115610480308533/0,002417540643364191/0,12647999823093414/0,059541430324316025
4,995899200439453/1,1634310483932495/0/0,8115610480308533/0,002417540643364191/0,12647999823093414/0,059541430324316025
4,995899200439453/1,1735165119171143/0/0,8115610480308533/0,002417540643364191/0,12647999823093414/0,059541430324316025
4,995899200439453/1,1886446475982666/0/0,8115610480308533/0,002417540643364191/0,12647999823093414/0,059541430324316025
4,995899200439453/1,2059340476989746/0/0,8115610480308533/0,002417540643364191/0,12647999823093414/0,059541430324316025
4,995899200439453/1,2059340476989746/0/0,8115610480308533/0,002417540643364191/0,12647999823093414/0,059541430324316025
4,995899200439453/1,1958485841751099/0/0,8115610480308533/0,002417540643364191/0,12647999823093414/0,059541430324316025
4,995899200439453/1,2145787477493286/0/0,8115610480308533/0,002417540643364191/0,12647999823093414/0,059541430324316025
4,995899200439453/1,215299129486084/0/0,8115610480308533/0,002417540643364191/0,12647999823093414/0,059541430324316025
4,995899200439453/1,1742368936538696/0/0,8115610480308533/0,002417540643364191/0,12647999823093414/0,059541430324316025
4,995899200439453/1,1641514301300049/0/0,8115610480308533/0,002417540643364191/0,12647999823093414/0,059541430324316025
4,995899200439453/1,183601975440979/0/0,8115610480308533/0,002417540643364191/0,12647999823093414/0,059541430324316025
4,995899200439453/1,181440830230713/0/0,8115610480308533/0,002417540643364191/0,12647999823093414/0,059541430324316025
4,995899200439453/1,1735165119171143/0/0,8115610480308533/0,002417540643364191/0,12647999823093414/0,059541430324316025
4,995899200439453/1,1857631206512451/0/0,8115610480308533/0,002417540643364191/0,12647999823093414/0,059541430324316025
4,995899200439453/1,1771184206008911/0/0,8115610480308533/0,002417540643364191/0,12647999823093414/0,059541430324316025
4,995899200439453/1,2080953121185303/0/0,8115610480308533/0,002417540643364191/0,12647999823093414/0,059541430324316025
4,995899200439453/1,1677533388137817/0/0,8115610480308533/0,002417540643364191/0,12647999823093414/0,059541430324316025
4,995899200439453/1,1497435569763184/0/0,8115610480308533/0,002417540643364191/0,12647999823093414/0,059541430324316025
4,995899200439453/1,1353358030319214/0/0,8115610480308533/0,002417540643364191/0,12647999823093414/0,059541430324316025
4,995899200439453/1,1670329570770264/0/0,8115610480308533/0,002417540643364191/0,12647999823093414/0,059541430324316025
4,995899200439453/1,1857631206512451/0/0,8115610480308533/0,002417540643364191/0,12647999823093414/0,059541430324316025
4,995899200439453/1,1158852577209473/0/0,8115610480308533/0,002417540643364191/0,12647999823093414/0,059541430324316025
4,995899200439453/1,1194871664047241/0/0,8115610480308533/0,002417540643364191/0,12647999823093414/0,059541430324316025
4,995899200439453/1,1382173299789429/0/0,8115610480308533/0,002417540643364191/0,12647999823093414/0,059541430324316025
4,995899200439453/1,1374969482421875/0/0,8115610480308533/0,002417540643364191/0,12647999823093414/0,059541430324316025
4,995899200439453/1,1540659666061401/0/0,8115610480308533/0,002417540643364191/0,12647999823093414/0,059541430324316025
4,995899200439453/1,157667875289917/0/0,8115610480308533/0,002417540643364191/0,12647999823093414/0,059541430324316025
4,995899200439453/1,1756776571273804/0/0,8115610480308533/0,002417540643364191/0,12647999823093414/0,059541430324316025
4,995899200439453/1,174957275390625/0/0,8115610480308533/0,002417540643364191/0,12647999823093414/0,059541430324316025
4,995899200439453/1,1821612119674683/0/0,8115610480308533/0,002417540643364191/0,12647999823093414/0,059541430324316025
4,995899200439453/1,174957275390625/0/0,8115610480308533/0,002417540643364191/0,12647999823093414/0,059541430324316025
4,995899200439453/1,1727961301803589/0/0,8115610480308533/0,002417540643364191/0,12647999823093414/0,059541430324316025
4,995899200439453/1,1936874389648438/0/0,8115610480308533/0,002417540643364191/0,12647999823093414/0,059541430324316025
4,995899200439453/1,1800000667572021/0/0,8115610480308533/0,002417540643364191/0,12647999823093414/0,059541430324316025
4,995899200439453/1,2102564573287964/0/0,8115610480308533/0,002417540643364191/0,12647999823093414/0,059541430324316025
4,995899200439453/1,1627106666564941/0/0,8115610480308533/0,002417540643364191/0,12647999823093414/0,059541430324316025
4,995899200439453/1,160549521446228/0/0,8115610480308533/0,002417540643364191/0,12647999823093414/0,059541430324316025
4,995899200439453/1,183601975440979/0/0,8115610480308533/0,002417540643364191/0,12647999823093414/0,059541430324316025
4,995899200439453/1,1958485841751099/0/0,8115610480308533/0,002417540643364191/0,12647999823093414/0,059541430324316025
4,995899200439453/1,2016117572784424/0/0,8115610480308533/0,002417540643364191/0,12647999823093414/0,059541430324316025
4,995899200439453/1,2001709938049316/0/0,8115610480308533/0,002417540643364191/0,12647999823093414/0,059541430324316025
4,995899200439453/1,2318681478500366/0/0,8115610480308533/0,002417540643364191/0,12647999823093414/0,059541430324316025
4,995899200439453/1,14326012134552/0/0,8115610480308533/0,002417540643364191/0,12647999823093414/0,059541430324316025
4,995899200439453/1,1583882570266724/0/0,8115610480308533/0,002417540643364191/0,12647999823093414/0,059541430324316025
4,995899200439453/1,1872038841247559/0/0,8115610480308533/0,002417540643364191/0,12647999823093414/0,059541430324316025
4,995899200439453/1,1821612119674683/0/0,8115610480308533/0,002417540643364191/0,12647999823093414/0,059541430324316025
4,995899200439453/1,1850427389144897/0/0,8115610480308533/0,002417540643364191/0,12647999823093414/0,059541430324316025
4,995899200439453/1,1756776571273804/0/0,8115610480308533/0,002417540643364191/0,12647999823093414/0,059541430324316025
4,995899200439453/1,1864835023880005/0/0,8115610480308533/0,002417540643364191/0,12647999823093414/0,059541430324316025
4,995899200439453/1,183601975440979/0/0,8115610480308533/0,002417540643364191/0,12647999823093414/0,059541430324316025
4,995899200439453/1,1756776571273804/0/0,8115610480308533/0,002417540643364191/0,12647999823093414/0,059541430324316025
4,995899200439453/1,181440830230713/0/0,8115610480308533/0,002417540643364191/0,12647999823093414/0,059541430324316025
4,995899200439453/1,1828815937042236/0/0,8115610480308533/0,002417540643364191/0,12647999823093414/0,059541430324316025
4,995899200439453/1,2080953121185303/0/0,8115610480308533/0,002417540643364191/0,12647999823093414/0,059541430324316025
4,995899200439453/1,1648718118667603/0/0,8115610480308533/0,002417540643364191/0,12647999823093414/0,059541430324316025
4,995899200439453/1,1562271118164062/0/0,8115610480308533/0,002417540643364191/0,12647999823093414/0,059541430324316025
4,995899200439453/1,1648718118667603/0/0,8115610480308533/0,002417540643364191/0,12647999823093414/0,059541430324316025
4,995899200439453/1,166312575340271/0/0,8115610480308533/0,002417540643364191/0,12647999823093414/0,059541430324316025
4,995899200439453/1,1908059120178223/0/0,8115610480308533/0,002417540643364191/0,12647999823093414/0,059541430324316025
4,995899200439453/1,168473720550537/0/0,8115610480308533/0,002417540643364191/0,12647999823093414/0,059541430324316025
4,995899200439453/1,157667875289917/0/0,8115610480308533/0,002417540643364191/0,12647999823093414/0,059541430324316025
4,995899200439453/1,2044932842254639/0/0,8115610480308533/0,002417540643364191/0,12647999823093414/0,059541430324316025
4,995899200439453/1,2203419208526611/0/0,8115610480308533/0,002417540643364191/0,12647999823093414/0,059541430324316025
4,995899200439453/1,1447008848190308/0/0,8115610480308533/0,002417540643364191/0,12647999823093414/0,059541430324316025
4,995899200439453/1,1627106666564941/0/0,8115610480308533/0,002417540643364191/0,12647999823093414/0,059541430324316025
4,995899200439453/1,1670329570770264/0/0,8115610480308533/0,002417540643364191/0,12647999823093414/0,059541430324316025
4,995899200439453/1,1771184206008911/0/0,8115610480308533/0,002417540643364191/0,12647999823093414/0,059541430324316025
4,995899200439453/1,190085530281067/0/0,8115610480308533/0,002417540643364191/0,12647999823093414/0,059541430324316025
4,995899200439453/1,1936874389648438/0/0,8115610480308533/0,002417540643364191/0,12647999823093414/0,059541430324316025
4,995899200439453/1,1792796850204468/0/0,8115610480308533/0,002417540643364191/0,12647999823093414/0,059541430324316025
4,995899200439453/1,1821612119674683/0/0,8115610480308533/0,002417540643364191/0,12647999823093414/0,059541430324316025
4,995899200439453/1,2109768390655518/0/0,8115610480308533/0,002417540643364191/0,12647999823093414/0,059541430324316025
4,995899200439453/1,2210623025894165/0/0,8115610480308533/0,002417540643364191/0,12647999823093414/0,059541430324316025
4,995899200439453/1,1511844396591187/0/0,8115610480308533/0,002417540643364191/0,12647999823093414/0,059541430324316025
4,995899200439453/1,1756776571273804/0/0,8115610480308533/0,002417540643364191/0,12647999823093414/0,059541430324316025
4,995899200439453/1,1627106666564941/0/0,8115610480308533/0,002417540643364191/0,12647999823093414/0,059541430324316025
4,995899200439453/1,1677533388137817/0/0,8115610480308533/0,002417540643364191/0,12647999823093414/0,059541430324316025
4,995899200439453/1,1547863483428955/0/0,8115610480308533/0,002417540643364191/0,12647999823093414/0,059541430324316025
4,995899200439453/1,1670329570770264/0/0,8115610480308533/0,002417540643364191/0,12647999823093414/0,059541430324316025
4,995899200439453/1,174957275390625/0/0,8115610480308533/0,002417540643364191/0,12647999823093414/0,059541430324316025
4,995899200439453/1,1720757484436035/0/0,8115610480308533/0,002417540643364191/0,12647999823093414/0,059541430324316025
4,995899200439453/1,1929670572280884/0/0,8115610480308533/0,002417540643364191/0,12647999823093414/0,059541430324316025
4,995899200439453/1,2138583660125732/0/0,8115610480308533/0,002417540643364191/0,12647999823093414/0,059541430324316025
4,995899200439453/1,140378475189209/0/0,8115610480308533/0,002417540643364191/0,12647999823093414/0,059541430324316025
4,995899200439453/1,1439805030822754/0/0,8115610480308533/0,002417540643364191/0,12647999823093414/0,059541430324316025
4,995899200439453/1,1547863483428955/0/0,8115610480308533/0,002417540643364191/0,12647999823093414/0,059541430324316025
4,995899200439453/1,1619902849197388/0/0,8115610480308533/0,002417540643364191/0,12647999823093414/0,059541430324316025
4,995899200439453/1,1936874389648438/0/0,8115610480308533/0,002417540643364191/0,12647999823093414/0,059541430324316025
4,995899200439453/1,1994506120681763/0/0,8115610480308533/0,002417540643364191/0,12647999823093414/0,059541430324316025
4,995899200439453/1,1843223571777344/0/0,8115610480308533/0,002417540643364191/0,12647999823093414/0,059541430324316025
4,995899200439453/1,1374969482421875/0/0,8115610480308533/0,002417540643364191/0,12647999823093414/0,059541430324316025
4,995899200439453/1,1583882570266724/0/0,8115610480308533/0,002417540643364191/0,12647999823093414/0,059541430324316025
4,995899200439453/1,1713553667068481/0/0,8115610480308533/0,002417540643364191/0,12647999823093414/0,059541430324316025
4,995899200439453/1,1742368936538696/0/0,8115610480308533/0,002417540643364191/0,12647999823093414/0,059541430324316025
4,995899200439453/1,1742368936538696/0/0,8115610480308533/0,002417540643364191/0,12647999823093414/0,059541430324316025
4,995899200439453/1,1555067300796509/0/0,8115610480308533/0,002417540643364191/0,12647999823093414/0,059541430324316025
4,995899200439453/0,6108913421630859/0/0,8115610480308533/0,002417540643364191/0,12647999823093414/0,059541430324316025
4,995899200439453/1,1158852577209473/0/0,8115610480308533/0,002417540643364191/0,12647999823093414/0,059541430324316025
4,995899200439453/1,200891375541687/0/0,8115610480308533/0,002417540643364191/0,12647999823093414/0,059541430324316025
4,995899200439453/1,2160195112228394/0/0,8115610480308533/0,002417540643364191/0,12647999823093414/0,059541430324316025
4,995899200439453/1,2369109392166138/0/0,8115610480308533/0,002417540643364191/0,12647999823093414/0,059541430324316025
4,995899200439453/1,2138583660125732/0/0,8115610480308533/0,002417540643364191/0,12647999823093414/0,059541430324316025
4,995899200439453/1,2196215391159058/0/0,8115610480308533/0,002417540643364191/0,12647999823093414/0,059541430324316025
4,995899200439453/1,234749674797058/0/0,8115610480308533/0,002417540643364191/0,12647999823093414/0,059541430324316025
4,995899200439453/1,2520390748977661/0/0,8115610480308533/0,002417540643364191/0,12647999823093414/0,059541430324316025
4,995899200439453/1,198730230331421/0/0,8115610480308533/0,002417540643364191/0,12647999823093414/0,059541430324316025
4,995899200439453/1,2311477661132812/0/0,8115610480308533/0,002417540643364191/0,12647999823093414/0,059541430324316025
4,995899200439453/1,2196215391159058/0/0,8115610480308533/0,002417540643364191/0,12647999823093414/0,059541430324316025
4,995899200439453/1,2390720844268799/0/0,8115610480308533/0,002417540643364191/0,12647999823093414/0,059541430324316025
4,995899200439453/1,2268253564834595/0/0,8115610480308533/0,002417540643364191/0,12647999823093414/0,059541430324316025
4,995899200439453/1,1944078207015991/0/0,8115610480308533/0,002417540643364191/0,12647999823093414/0,059541430324316025
4,995899200439453/1,2023321390151978/0/0,8115610480308533/0,002417540643364191/0,12647999823093414/0,059541430324316025
4,995899200439453/1,192246675491333/0/0,8115610480308533/0,002417540643364191/0,12647999823093414/0,059541430324316025
4,995899200439453/1,198730230331421/0/0,8115610480308533/0,002417540643364191/0,12647999823093414/0,059541430324316025
4,995899200439453/1,1864835023880005/0/0,8115610480308533/0,002417540643364191/0,12647999823093414/0,059541430324316025
4,995899200439453/1,198730230331421/0/0,8115610480308533/0,002417540643364191/0,12647999823093414/0,059541430324316025
4,995899200439453/1,2080953121185303/0/0,8115610480308533/0,002417540643364191/0,12647999823093414/0,059541430324316025
4,995899200439453/1,2030525207519531/0/0,8115610480308533/0,002417540643364191/0,12647999823093414/0,059541430324316025
4,995899200439453/1,1972893476486206/0/0,8115610480308533/0,002417540643364191/0,12647999823093414/0,059541430324316025
4,995899200439453/1,1972893476486206/0/0,8115610480308533/0,002417540643364191/0,12647999823093414/0,059541430324316025
4,995899200439453/1,2052136659622192/0/0,8115610480308533/0,002417540643364191/0,12647999823093414/0,059541430324316025
4,995899200439453/1,2340292930603027/0/0,8115610480308533/0,002417540643364191/0,12647999823093414/0,059541430324316025
4,995899200439453/1,1209279298782349/0/0,8115610480308533/0,002417540643364191/0,12647999823093414/0,059541430324316025
4,995899200439453/1,1245299577713013/0/0,8115610480308533/0,002417540643364191/0,12647999823093414/0,059541430324316025
4,995899200439453/1,1735165119171143/0/0,8115610480308533/0,002417540643364191/0,12647999823093414/0,059541430324316025
4,995899200439453/1,157667875289917/0/0,8115610480308533/0,002417540643364191/0,12647999823093414/0,059541430324316025
4,995899200439453/1,1216484308242798/0/0,8115610480308533/0,002417540643364191/0,12647999823093414/0,059541430324316025
4,995899200439453/1,1288522481918335/0/0,8115610480308533/0,002417540643364191/0,12647999823093414/0,059541430324316025
4,995899200439453/1,14326012134552/0/0,8115610480308533/0,002417540643364191/0,12647999823093414/0,059541430324316025
4,995899200439453/1,151904821395874/0/0,8115610480308533/0,002417540643364191/0,12647999823093414/0,059541430324316025
4,995899200439453/1,160549521446228/0/0,8115610480308533/0,002417540643364191/0,12647999823093414/0,059541430324316025
4,995899200439453/1,1569474935531616/0/0,8115610480308533/0,002417540643364191/0,12647999823093414/0,059541430324316025
4,995899200439453/1,1555067300796509/0/0,8115610480308533/0,002417540643364191/0,12647999823093414/0,059541430324316025
4,995899200439453/1,1634310483932495/0/0,8115610480308533/0,002417540643364191/0,12647999823093414/0,059541430324316025
4,995899200439453/1,157667875289917/0/0,8115610480308533/0,002417540643364191/0,12647999823093414/0,059541430324316025
4,995899200439453/1,1655921936035156/0/0,8115610480308533/0,002417540643364191/0,12647999823093414/0,059541430324316025
4,995899200439453/1,1504640579223633/0/0,8115610480308533/0,002417540643364191/0,12647999823093414/0,059541430324316025
4,995899200439453/1,140378475189209/0/0,8115610480308533/0,002417540643364191/0,12647999823093414/0,059541430324316025
4,995899200439453/1,1562271118164062/0/0,8115610480308533/0,002417540643364191/0,12647999823093414/0,059541430324316025
4,995899200439453/1,1785591840744019/0/0,8115610480308533/0,002417540643364191/0,12647999823093414/0,059541430324316025
4,995899200439453/1,1569474935531616/0/0,8115610480308533/0,002417540643364191/0,12647999823093414/0,059541430324316025
4,995899200439453/1,1547863483428955/0/0,8115610480308533/0,002417540643364191/0,12647999823093414/0,059541430324316025
4,995899200439453/1,1763980388641357/0/0,8115610480308533/0,002417540643364191/0,12647999823093414/0,059541430324316025
4,995899200439453/1,1670329570770264/0/0,8115610480308533/0,002417540643364191/0,12647999823093414/0,059541430324316025
4,995899200439453/1,1958485841751099/0/0,8115610480308533/0,002417540643364191/0,12647999823093414/0,059541430324316025
4,995899200439453/1,1331746578216553/0/0,8115610480308533/0,002417540643364191/0,12647999823093414/0,059541430324316025
4,995899200439453/1,1288522481918335/0/0,8115610480308533/0,002417540643364191/0,12647999823093414/0,059541430324316025
4,995899200439453/1,1591086387634277/0/0,8115610480308533/0,002417540643364191/0,12647999823093414/0,059541430324316025
4,995899200439453/1,1648718118667603/0/0,8115610480308533/0,002417540643364191/0,12647999823093414/0,059541430324316025
4,995899200439453/1,2160195112228394/0/0,8115610480308533/0,002417540643364191/0,12647999823093414/0,059541430324316025
4,995899200439453/1,183601975440979/0/0,8115610480308533/0,002417540643364191/0,12647999823093414/0,059541430324316025
4,995899200439453/1,1447008848190308/0/0,8115610480308533/0,002417540643364191/0,12647999823093414/0,059541430324316025
4,995899200439453/1,159829020500183/0/0,8115610480308533/0,002417540643364191/0,12647999823093414/0,059541430324316025
4,995899200439453/1,1533455848693848/0/0,8115610480308533/0,002417540643364191/0,12647999823093414/0,059541430324316025
4,995899200439453/1,166312575340271/0/0,8115610480308533/0,002417540643364191/0,12647999823093414/0,059541430324316025
4,995899200439453/1,160549521446228/0/0,8115610480308533/0,002417540643364191/0,12647999823093414/0,059541430324316025
4,995899200439453/1,166312575340271/0/0,8115610480308533/0,002417540643364191/0,12647999823093414/0,059541430324316025
4,995899200439453/1,1547863483428955/0/0,8115610480308533/0,002417540643364191/0,12647999823093414/0,059541430324316025
4,995899200439453/1,1648718118667603/0/0,8115610480308533/0,002417540643364191/0,12647999823093414/0,059541430324316025
4,995899200439453/1,1461416482925415/0/0,8115610480308533/0,002417540643364191/0,12647999823093414/0,059541430324316025
4,995899200439453/1,1540659666061401/0/0,8115610480308533/0,002417540643364191/0,12647999823093414/0,059541430324316025
4,995899200439453/1,1583882570266724/0/0,8115610480308533/0,002417540643364191/0,12647999823093414/0,059541430324316025
4,995899200439453/1,1555067300796509/0/0,8115610480308533/0,002417540643364191/0,12647999823093414/0,059541430324316025
4,995899200439453/1,159829020500183/0/0,8115610480308533/0,002417540643364191/0,12647999823093414/0,059541430324316025
4,995899200439453/1,1648718118667603/0/0,8115610480308533/0,002417540643364191/0,12647999823093414/0,059541430324316025
4,995899200439453/1,1634310483932495/0/0,8115610480308533/0,002417540643364191/0,12647999823093414/0,059541430324316025
4,995899200439453/1,1569474935531616/0/0,8115610480308533/0,002417540643364191/0,12647999823093414/0,059541430324316025
4,995899200439453/1,174957275390625/0/0,8115610480308533/0,002417540643364191/0,12647999823093414/0,059541430324316025
4,995899200439453/1,1756776571273804/0/0,8115610480308533/0,002417540643364191/0,12647999823093414/0,059541430324316025
4,995899200439453/1,1763980388641357/0/0,8115610480308533/0,002417540643364191/0,12647999823093414/0,059541430324316025
4,995899200439453/1,1677533388137817/0/0,8115610480308533/0,002417540643364191/0,12647999823093414/0,059541430324316025
4,995899200439453/1,1778388023376465/0/0,8115610480308533/0,002417540643364191/0,12647999823093414/0,059541430324316025
4,995899200439453/1,174957275390625/0/0,8115610480308533/0,002417540643364191/0,12647999823093414/0,059541430324316025
4,995899200439453/1,1807204484939575/0/0,8115610480308533/0,002417540643364191/0,12647999823093414/0,059541430324316025
4,995899200439453/1,160549521446228/0/0,8115610480308533/0,002417540643364191/0,12647999823093414/0,059541430324316025
4,995899200439453/1,1569474935531616/0/0,8115610480308533/0,002417540643364191/0,12647999823093414/0,059541430324316025
4,995899200439453/1,2030525207519531/0/0,8115610480308533/0,002417540643364191/0,12647999823093414/0,059541430324316025
4,995899200439453/1,1158852577209473/0/0,8115610480308533/0,002417540643364191/0,12647999823093414/0,059541430324316025
4,995899200439453/1,1288522481918335/0/0,8115610480308533/0,002417540643364191/0,12647999823093414/0,059541430324316025
4,995899200439453/1,1418193578720093/0/0,8115610480308533/0,002417540643364191/0,12647999823093414/0,059541430324316025
4,995899200439453/1,1447008848190308/0/0,8115610480308533/0,002417540643364191/0,12647999823093414/0,059541430324316025
4,995899200439453/1,134615421295166/0/0,8115610480308533/0,002417540643364191/0,12647999823093414/0,059541430324316025
4,995899200439453/1,1447008848190308/0/0,8115610480308533/0,002417540643364191/0,12647999823093414/0,059541430324316025
4,995899200439453/1,1706349849700928/0/0,8115610480308533/0,002417540643364191/0,12647999823093414/0,059541430324316025
4,995899200439453/1,1735165119171143/0/0,8115610480308533/0,002417540643364191/0,12647999823093414/0,059541430324316025
4,995899200439453/1,1691941022872925/0/0,8115610480308533/0,002417540643364191/0,12647999823093414/0,059541430324316025
4,995899200439453/1,1807204484939575/0/0,8115610480308533/0,002417540643364191/0,12647999823093414/0,059541430324316025
4,995899200439453/1,1879242658615112/0/0,8115610480308533/0,002417540643364191/0,12647999823093414/0,059541430324316025
4,995899200439453/1,1699146032333374/0/0,8115610480308533/0,002417540643364191/0,12647999823093414/0,059541430324316025
4,995899200439453/1,1850427389144897/0/0,8115610480308533/0,002417540643364191/0,12647999823093414/0,059541430324316025
4,995899200439453/1,1850427389144897/0/0,8115610480308533/0,002417540643364191/0,12647999823093414/0,059541430324316025
4,995899200439453/1,1720757484436035/0/0,8115610480308533/0,002417540643364191/0,12647999823093414/0,059541430324316025
4,995899200439453/1,1778388023376465/0/0,8115610480308533/0,002417540643364191/0,12647999823093414/0,059541430324316025
4,995899200439453/1,1807204484939575/0/0,8115610480308533/0,002417540643364191/0,12647999823093414/0,059541430324316025
4,995899200439453/1,1857631206512451/0/0,8115610480308533/0,002417540643364191/0,12647999823093414/0,059541430324316025
4,995899200439453/1,1879242658615112/0/0,8115610480308533/0,002417540643364191/0,12647999823093414/0,059541430324316025
4,995899200439453/1,1893651485443115/0/0,8115610480308533/0,002417540643364191/0,12647999823093414/0,059541430324316025
4,995899200439453/1,1727961301803589/0/0,8115610480308533/0,002417540643364191/0,12647999823093414/0,059541430324316025
4,995899200439453/1,1677533388137817/0/0,8115610480308533/0,002417540643364191/0,12647999823093414/0,059541430324316025
4,995899200439453/1,174957275390625/0/0,8115610480308533/0,002417540643364191/0,12647999823093414/0,059541430324316025
4,995899200439453/1,1864835023880005/0/0,8115610480308533/0,002417540643364191/0,12647999823093414/0,059541430324316025
4,995899200439453/1,2037729024887085/0/0,8115610480308533/0,002417540643364191/0,12647999823093414/0,059541430324316025
4,995899200439453/1,1526252031326294/0/0,8115610480308533/0,002417540643364191/0,12647999823093414/0,059541430324316025
4,995899200439453/1,1807204484939575/0/0,8115610480308533/0,002417540643364191/0,12647999823093414/0,059541430324316025
4,995899200439453/1,1864835023880005/0/0,8115610480308533/0,002417540643364191/0,12647999823093414/0,059541430324316025
4,995899200439453/1,1209279298782349/0/0,8115610480308533/0,002417540643364191/0,12647999823093414/0,059541430324316025
4,995899200439453/1,1439805030822754/0/0,8115610480308533/0,002417540643364191/0,12647999823093414/0,059541430324316025
4,995899200439453/1,1727961301803589/0/0,8115610480308533/0,002417540643364191/0,12647999823093414/0,059541430324316025
4,995899200439453/1,1944078207015991/0/0,8115610480308533/0,002417540643364191/0,12647999823093414/0,059541430324316025
4,995899200439453/1,1547863483428955/0/0,8115610480308533/0,002417540643364191/0,12647999823093414/0,059541430324316025
4,995899200439453/1,1648718118667603/0/0,8115610480308533/0,002417540643364191/0,12647999823093414/0,059541430324316025
4,995899200439453/1,1641514301300049/0/0,8115610480308533/0,002417540643364191/0,12647999823093414/0,059541430324316025
4,995899200439453/1,1727961301803589/0/0,8115610480308533/0,002417540643364191/0,12647999823093414/0,059541430324316025
4,995899200439453/1,1727961301803589/0/0,8115610480308533/0,002417540643364191/0,12647999823093414/0,059541430324316025
4,995899200439453/1,1699146032333374/0/0,8115610480308533/0,002417540643364191/0,12647999823093414/0,059541430324316025
4,995899200439453/1,1893651485443115/0/0,8115610480308533/0,002417540643364191/0,12647999823093414/0,059541430324316025
4,995899200439453/1,200891375541687/0/0,8115610480308533/0,002417540643364191/0,12647999823093414/0,059541430324316025
4,995899200439453/1,1915262937545776/0/0,8115610480308533/0,002417540643364191/0,12647999823093414/0,059541430324316025
4,995899200439453/1,1864835023880005/0/0,8115610480308533/0,002417540643364191/0,12647999823093414/0,059541430324316025
4,995899200439453/1,1951282024383545/0/0,8115610480308533/0,002417540643364191/0,12647999823093414/0,059541430324316025
4,995899200439453/1,1778388023376465/0/0,8115610480308533/0,002417540643364191/0,12647999823093414/0,059541430324316025
4,995899200439453/1,1713553667068481/0/0,8115610480308533/0,002417540643364191/0,12647999823093414/0,059541430324316025
4,995899200439453/1,1850427389144897/0/0,8115610480308533/0,002417540643364191/0,12647999823093414/0,059541430324316025
4,995899200439453/1,1908059120178223/0/0,8115610480308533/0,002417540643364191/0,12647999823093414/0,059541430324316025
4,995899200439453/1,234749674797058/0/0,8115610480308533/0,002417540643364191/0,12647999823093414/0,059541430324316025
4,995899200439453/1,1872038841247559/0/0,8115610480308533/0,002417540643364191/0,12647999823093414/0,059541430324316025
4,995899200439453/1,1619902849197388/0/0,8115610480308533/0,002417540643364191/0,12647999823093414/0,059541430324316025
4,995899200439453/1,1800000667572021/0/0,8115610480308533/0,002417540643364191/0,12647999823093414/0,059541430324316025
4,995899200439453/1,1828815937042236/0/0,8115610480308533/0,002417540643364191/0,12647999823093414/0,059541430324316025
4,995899200439453/1,1677533388137817/0/0,8115610480308533/0,002417540643364191/0,12647999823093414/0,059541430324316025
4,995899200439453/1,1648718118667603/0/0,8115610480308533/0,002417540643364191/0,12647999823093414/0,059541430324316025
4,995899200439453/1,1879242658615112/0/0,8115610480308533/0,002417540643364191/0,12647999823093414/0,059541430324316025
4,995899200439453/1,1778388023376465/0/0,8115610480308533/0,002417540643364191/0,12647999823093414/0,059541430324316025
4,995899200439453/1,2289866209030151/0/0,8115610480308533/0,002417540643364191/0,12647999823093414/0,059541430324316025
4,995899200439453/1,157667875289917/0/0,8115610480308533/0,002417540643364191/0,12647999823093414/0,059541430324316025
4,995899200439453/1,141098976135254/0/0,8115610480308533/0,002417540643364191/0,12647999823093414/0,059541430324316025
4,995899200439453/1,1468620300292969/0/0,8115610480308533/0,002417540643364191/0,12647999823093414/0,059541430324316025
4,995899200439453/1,1555067300796509/0/0,8115610480308533/0,002417540643364191/0,12647999823093414/0,059541430324316025
4,995899200439453/1,166312575340271/0/0,8115610480308533/0,002417540643364191/0,12647999823093414/0,059541430324316025
4,995899200439453/1,1648718118667603/0/0,8115610480308533/0,002417540643364191/0,12647999823093414/0,059541430324316025
4,995899200439453/1,166312575340271/0/0,8115610480308533/0,002417540643364191/0,12647999823093414/0,059541430324316025
4,995899200439453/1,1843223571777344/0/0,8115610480308533/0,002417540643364191/0,12647999823093414/0,059541430324316025
4,995899200439453/1,1915262937545776/0/0,8115610480308533/0,002417540643364191/0,12647999823093414/0,059541430324316025
4,995899200439453/1,2138583660125732/0/0,8115610480308533/0,002417540643364191/0,12647999823093414/0,059541430324316025
4,995899200439453/1,1468620300292969/0/0,8115610480308533/0,002417540643364191/0,12647999823093414/0,059541430324316025
4,995899200439453/1,160549521446228/0/0,8115610480308533/0,002417540643364191/0,12647999823093414/0,059541430324316025
4,995899200439453/1,1706349849700928/0/0,8115610480308533/0,002417540643364191/0,12647999823093414/0,059541430324316025
4,995899200439453/1,1828815937042236/0/0,8115610480308533/0,002417540643364191/0,12647999823093414/0,059541430324316025
4,995899200439453/1,1691941022872925/0/0,8115610480308533/0,002417540643364191/0,12647999823093414/0,059541430324316025
4,995899200439453/1,1583882570266724/0/0,8115610480308533/0,002417540643364191/0,12647999823093414/0,059541430324316025
4,995899200439453/1,1583882570266724/0/0,8115610480308533/0,002417540643364191/0,12647999823093414/0,059541430324316025
4,995899200439453/1,1785591840744019/0/0,8115610480308533/0,002417540643364191/0,12647999823093414/0,059541430324316025
4,995899200439453/1,1526252031326294/0/0,8115610480308533/0,002417540643364191/0,12647999823093414/0,059541430324316025
4,995899200439453/1,1497435569763184/0/0,8115610480308533/0,002417540643364191/0,12647999823093414/0,059541430324316025
4,995899200439453/1,160549521446228/0/0,8115610480308533/0,002417540643364191/0,12647999823093414/0,059541430324316025
4,995899200439453/1,1965689659118652/0/0,8115610480308533/0,002417540643364191/0,12647999823093414/0,059541430324316025
4,995899200439453/1,1677533388137817/0/0,8115610480308533/0,002417540643364191/0,12647999823093414/0,059541430324316025
4,995899200439453/1,1295726299285889/0/0,8115610480308533/0,002417540643364191/0,12647999823093414/0,059541430324316025
4,995899200439453/1,1317338943481445/0/0,8115610480308533/0,002417540643364191/0,12647999823093414/0,059541430324316025
4,995899200439453/1,1540659666061401/0/0,8115610480308533/0,002417540643364191/0,12647999823093414/0,059541430324316025
4,995899200439453/1,1864835023880005/0/0,8115610480308533/0,002417540643364191/0,12647999823093414/0,059541430324316025
4,995899200439453/1,174957275390625/0/0,8115610480308533/0,002417540643364191/0,12647999823093414/0,059541430324316025
4,995899200439453/1,1555067300796509/0/0,8115610480308533/0,002417540643364191/0,12647999823093414/0,059541430324316025
4,995899200439453/1,1994506120681763/0/0,8115610480308533/0,002417540643364191/0,12647999823093414/0,059541430324316025
4,995899200439453/1,2044932842254639/0/0,8115610480308533/0,002417540643364191/0,12647999823093414/0,059541430324316025
4,995899200439453/1,1864835023880005/0/0,8115610480308533/0,002417540643364191/0,12647999823093414/0,059541430324316025
4,995899200439453/1,1850427389144897/0/0,8115610480308533/0,002417540643364191/0,12647999823093414/0,059541430324316025
4,995899200439453/1,1792796850204468/0/0,8115610480308533/0,002417540643364191/0,12647999823093414/0,059541430324316025
4,995899200439453/1,1583882570266724/0/0,8115610480308533/0,002417540643364191/0,12647999823093414/0,059541430324316025
4,995899200439453/1,1655921936035156/0/0,8115610480308533/0,002417540643364191/0,12647999823093414/0,059541430324316025
4,995899200439453/1,218180775642395/0/0,8115610480308533/0,002417540643364191/0,12647999823093414/0,059541430324316025
4,995899200439453/1,1562271118164062/0/0,8115610480308533/0,002417540643364191/0,12647999823093414/0,059541430324316025
4,995899200439453/1,117326021194458/0/0,8115610480308533/0,002417540643364191/0,12647999823093414/0,059541430324316025
4,995899200439453/1,1439805030822754/0/0,8115610480308533/0,002417540643364191/0,12647999823093414/0,059541430324316025
4,995899200439453/1,1591086387634277/0/0,8115610480308533/0,002417540643364191/0,12647999823093414/0,059541430324316025
4,995899200439453/1,1648718118667603/0/0,8115610480308533/0,002417540643364191/0,12647999823093414/0,059541430324316025
4,995899200439453/1,1699146032333374/0/0,8115610480308533/0,002417540643364191/0,12647999823093414/0,059541430324316025
4,995899200439453/1,1627106666564941/0/0,8115610480308533/0,002417540643364191/0,12647999823093414/0,059541430324316025
4,995899200439453/1,1713553667068481/0/0,8115610480308533/0,002417540643364191/0,12647999823093414/0,059541430324316025
4,995899200439453/1,1713553667068481/0/0,8115610480308533/0,002417540643364191/0,12647999823093414/0,059541430324316025
4,995899200439453/1,1742368936538696/0/0,8115610480308533/0,002417540643364191/0,12647999823093414/0,059541430324316025
4,995899200439453/1,2196215391159058/0/0,8115610480308533/0,002417540643364191/0,12647999823093414/0,059541430324316025
4,995899200439453/1,1439805030822754/0/0,8115610480308533/0,002417540643364191/0,12647999823093414/0,059541430324316025
4,995899200439453/1,1461416482925415/0/0,8115610480308533/0,002417540643364191/0,12647999823093414/0,059541430324316025
4,995899200439453/1,174957275390625/0/0,8115610480308533/0,002417540643364191/0,12647999823093414/0,059541430324316025
4,995899200439453/1,1800000667572021/0/0,8115610480308533/0,002417540643364191/0,12647999823093414/0,059541430324316025
4,995899200439453/1,1929670572280884/0/0,8115610480308533/0,002417540643364191/0,12647999823093414/0,059541430324316025
4,995899200439453/1,192246675491333/0/0,8115610480308533/0,002417540643364191/0,12647999823093414/0,059541430324316025
4,995899200439453/1,183601975440979/0/0,8115610480308533/0,002417540643364191/0,12647999823093414/0,059541430324316025
4,995899200439453/1,1821612119674683/0/0,8115610480308533/0,002417540643364191/0,12647999823093414/0,059541430324316025
4,995899200439453/1,1785591840744019/0/0,8115610480308533/0,002417540643364191/0,12647999823093414/0,059541430324316025
4,995899200439453/1,168473720550537/0/0,8115610480308533/0,002417540643364191/0,12647999823093414/0,059541430324316025
4,995899200439453/1,1699146032333374/0/0,8115610480308533/0,002417540643364191/0,12647999823093414/0,059541430324316025
4,995899200439453/1,1627106666564941/0/0,8115610480308533/0,002417540643364191/0,12647999823093414/0,059541430324316025
4,995899200439453/1,1908059120178223/0/0,8115610480308533/0,002417540643364191/0,12647999823093414/0,059541430324316025
4,995899200439453/1,2023321390151978/0/0,8115610480308533/0,002417540643364191/0,12647999823093414/0,059541430324316025
4,995899200439453/1,1266911029815674/0/0,8115610480308533/0,002417540643364191/0,12647999823093414/0,059541430324316025
4,995899200439453/1,125970721244812/0/0,8115610480308533/0,002417540643364191/0,12647999823093414/0,059541430324316025
4,995899200439453/1,1583882570266724/0/0,8115610480308533/0,002417540643364191/0,12647999823093414/0,059541430324316025
4,995899200439453/1,2124176025390625/0/0,8115610480308533/0,002417540643364191/0,12647999823093414/0,059541430324316025
4,995899200439453/1,1555067300796509/0/0,8115610480308533/0,002417540643364191/0,12647999823093414/0,059541430324316025
4,995899200439453/1,1382173299789429/0/0,8115610480308533/0,002417540643364191/0,12647999823093414/0,059541430324316025
4,995899200439453/1,1547863483428955/0/0,8115610480308533/0,002417540643364191/0,12647999823093414/0,059541430324316025
4,995899200439453/1,1511844396591187/0/0,8115610480308533/0,002417540643364191/0,12647999823093414/0,059541430324316025
4,995899200439453/1,1828815937042236/0/0,8115610480308533/0,002417540643364191/0,12647999823093414/0,059541430324316025
4,995899200439453/1,1785591840744019/0/0,8115610480308533/0,002417540643364191/0,12647999823093414/0,059541430324316025
4,995899200439453/1,1763980388641357/0/0,8115610480308533/0,002417540643364191/0,12647999823093414/0,059541430324316025
4,995899200439453/1,160549521446228/0/0,8115610480308533/0,002417540643364191/0,12647999823093414/0,059541430324316025
4,995899200439453/1,159829020500183/0/0,8115610480308533/0,002417540643364191/0,12647999823093414/0,059541430324316025
4,995899200439453/1,1735165119171143/0/0,8115610480308533/0,002417540643364191/0,12647999823093414/0,059541430324316025
4,995899200439453/1,1828815937042236/0/0,8115610480308533/0,002417540643364191/0,12647999823093414/0,059541430324316025
4,995899200439453/1,1699146032333374/0/0,8115610480308533/0,002417540643364191/0,12647999823093414/0,059541430324316025
4,995899200439453/1,1648718118667603/0/0,8115610480308533/0,002417540643364191/0,12647999823093414/0,059541430324316025
4,995899200439453/1,151904821395874/0/0,8115610480308533/0,002417540643364191/0,12647999823093414/0,059541430324316025
4,995899200439453/1,1439805030822754/0/0,8115610480308533/0,002417540643364191/0,12647999823093414/0,059541430324316025
4,995899200439453/1,2369109392166138/0/0,8115610480308533/0,002417540643364191/0,12647999823093414/0,059541430324316025
4,995899200439453/1,1691941022872925/0/0,8115610480308533/0,002417540643364191/0,12647999823093414/0,059541430324316025
4,995899200439453/1,10003662109375/0/0,8115610480308533/0,002417540643364191/0,12647999823093414/0,059541430324316025
4,995899200439453/1,1317338943481445/0/0,8115610480308533/0,002417540643364191/0,12647999823093414/0,059541430324316025
4,995899200439453/1,1338950395584106/0/0,8115610480308533/0,002417540643364191/0,12647999823093414/0,059541430324316025
4,995899200439453/1,1526252031326294/0/0,8115610480308533/0,002417540643364191/0,12647999823093414/0,059541430324316025
4,995899200439453/1,1591086387634277/0/0,8115610480308533/0,002417540643364191/0,12647999823093414/0,059541430324316025
4,995899200439453/1,159829020500183/0/0,8115610480308533/0,002417540643364191/0,12647999823093414/0,059541430324316025
4,995899200439453/1,1785591840744019/0/0,8115610480308533/0,002417540643364191/0,12647999823093414/0,059541430324316025
4,995899200439453/1,1533455848693848/0/0,8115610480308533/0,002417540643364191/0,12647999823093414/0,059541430324316025
4,995899200439453/1,1713553667068481/0/0,8115610480308533/0,002417540643364191/0,12647999823093414/0,059541430324316025
4,995899200439453/1,1648718118667603/0/0,8115610480308533/0,002417540643364191/0,12647999823093414/0,059541430324316025
4,995899200439453/1,1713553667068481/0/0,8115610480308533/0,002417540643364191/0,12647999823093414/0,059541430324316025
4,995899200439453/1,1771184206008911/0/0,8115610480308533/0,002417540643364191/0,12647999823093414/0,059541430324316025
4,995899200439453/1,160549521446228/0/0,8115610480308533/0,002417540643364191/0,12647999823093414/0,059541430324316025
4,995899200439453/1,1727961301803589/0/0,8115610480308533/0,002417540643364191/0,12647999823093414/0,059541430324316025
4,995899200439453/1,1713553667068481/0/0,8115610480308533/0,002417540643364191/0,12647999823093414/0,059541430324316025
4,995899200439453/1,160549521446228/0/0,8115610480308533/0,002417540643364191/0,12647999823093414/0,059541430324316025
4,995899200439453/1,1583882570266724/0/0,8115610480308533/0,002417540643364191/0,12647999823093414/0,059541430324316025
4,995899200439453/1,1677533388137817/0/0,8115610480308533/0,002417540643364191/0,12647999823093414/0,059541430324316025
4,995899200439453/1,218180775642395/0/0,8115610480308533/0,002417540643364191/0,12647999823093414/0,059541430324316025
4,995899200439453/1,1540659666061401/0/0,8115610480308533/0,002417540643364191/0,12647999823093414/0,059541430324316025
4,995899200439453/1,1382173299789429/0/0,8115610480308533/0,002417540643364191/0,12647999823093414/0,059541430324316025
4,995899200439453/1,1756776571273804/0/0,8115610480308533/0,002417540643364191/0,12647999823093414/0,059541430324316025
4,995899200439453/1,1965689659118652/0/0,8115610480308533/0,002417540643364191/0,12647999823093414/0,059541430324316025
4,995899200439453/1,1944078207015991/0/0,8115610480308533/0,002417540643364191/0,12647999823093414/0,059541430324316025
4,995899200439453/1,149023175239563/0/0,8115610480308533/0,002417540643364191/0,12647999823093414/0,059541430324316025
4,995899200439453/1,1540659666061401/0/0,8115610480308533/0,002417540643364191/0,12647999823093414/0,059541430324316025
4,995899200439453/1,166312575340271/0/0,8115610480308533/0,002417540643364191/0,12647999823093414/0,059541430324316025
4,995899200439453/1,1958485841751099/0/0,8115610480308533/0,002417540643364191/0,12647999823093414/0,059541430324316025
4,995899200439453/1,1785591840744019/0/0,8115610480308533/0,002417540643364191/0,12647999823093414/0,059541430324316025
4,995899200439453/1,1735165119171143/0/0,8115610480308533/0,002417540643364191/0,12647999823093414/0,059541430324316025
4,995899200439453/1,1771184206008911/0/0,8115610480308533/0,002417540643364191/0,12647999823093414/0,059541430324316025
4,995899200439453/1,1562271118164062/0/0,8115610480308533/0,002417540643364191/0,12647999823093414/0,059541430324316025
4,995899200439453/1,1483027935028076/0/0,8115610480308533/0,002417540643364191/0,12647999823093414/0,059541430324316025
4,995899200439453/1,1634310483932495/0/0,8115610480308533/0,002417540643364191/0,12647999823093414/0,059541430324316025
4,995899200439453/1,1655921936035156/0/0,8115610480308533/0,002417540643364191/0,12647999823093414/0,059541430324316025
4,995899200439453/1,1655921936035156/0/0,8115610480308533/0,002417540643364191/0,12647999823093414/0,059541430324316025
4,995899200439453/1,1756776571273804/0/0,8115610480308533/0,002417540643364191/0,12647999823093414/0,059541430324316025
4,995899200439453/1,1857631206512451/0/0,8115610480308533/0,002417540643364191/0,12647999823093414/0,059541430324316025
4,995899200439453/1,1418193578720093/0/0,8115610480308533/0,002417540643364191/0,12647999823093414/0,059541430324316025
4,995899200439453/1,1670329570770264/0/0,8115610480308533/0,002417540643364191/0,12647999823093414/0,059541430324316025
4,995899200439453/1,1677533388137817/0/0,8115610480308533/0,002417540643364191/0,12647999823093414/0,059541430324316025
4,995899200439453/1,1497435569763184/0/0,8115610480308533/0,002417540643364191/0,12647999823093414/0,059541430324316025
4,995899200439453/1,1634310483932495/0/0,8115610480308533/0,002417540643364191/0,12647999823093414/0,059541430324316025
4,995899200439453/1,160549521446228/0/0,8115610480308533/0,002417540643364191/0,12647999823093414/0,059541430324316025
4,995899200439453/1,1727961301803589/0/0,8115610480308533/0,002417540643364191/0,12647999823093414/0,059541430324316025
4,995899200439453/1,1771184206008911/0/0,8115610480308533/0,002417540643364191/0,12647999823093414/0,059541430324316025
4,995899200439453/1,2023321390151978/0/0,8115610480308533/0,002417540643364191/0,12647999823093414/0,059541430324316025
4,995899200439453/1,1454212665557861/0/0,8115610480308533/0,002417540643364191/0,12647999823093414/0,059541430324316025
4,995899200439453/1,1475824117660522/0/0,8115610480308533/0,002417540643364191/0,12647999823093414/0,059541430324316025
4,995899200439453/1,1800000667572021/0/0,8115610480308533/0,002417540643364191/0,12647999823093414/0,059541430324316025
4,995899200439453/1,1742368936538696/0/0,8115610480308533/0,002417540643364191/0,12647999823093414/0,059541430324316025
4,995899200439453/1,1677533388137817/0/0,8115610480308533/0,002417540643364191/0,12647999823093414/0,059541430324316025
4,995899200439453/1,1872038841247559/0/0,8115610480308533/0,002417540643364191/0,12647999823093414/0,059541430324316025
4,995899200439453/1,1872038841247559/0/0,8115610480308533/0,002417540643364191/0,12647999823093414/0,059541430324316025
4,995899200439453/1,1886446475982666/0/0,8115610480308533/0,002417540643364191/0,12647999823093414/0,059541430324316025
4,995899200439453/1,1555067300796509/0/0,8115610480308533/0,002417540643364191/0,12647999823093414/0,059541430324316025
4,995899200439453/1,1461416482925415/0/0,8115610480308533/0,002417540643364191/0,12647999823093414/0,059541430324316025
4,995899200439453/1,1461416482925415/0/0,8115610480308533/0,002417540643364191/0,12647999823093414/0,059541430324316025
4,995899200439453/1,1483027935028076/0/0,8115610480308533/0,002417540643364191/0,12647999823093414/0,059541430324316025
4,995899200439453/1,1641514301300049/0/0,8115610480308533/0,002417540643364191/0,12647999823093414/0,059541430324316025
4,995899200439453/1,166312575340271/0/0,8115610480308533/0,002417540643364191/0,12647999823093414/0,059541430324316025
4,995899200439453/1,1807204484939575/0/0,8115610480308533/0,002417540643364191/0,12647999823093414/0,059541430324316025
4,995899200439453/1,2477167844772339/0/0,8115610480308533/0,002417540643364191/0,12647999823093414/0,059541430324316025
4,995899200439453/1,1331746578216553/0/0,8115610480308533/0,002417540643364191/0,12647999823093414/0,059541430324316025
4,995899200439453/1,117326021194458/0/0,8115610480308533/0,002417540643364191/0,12647999823093414/0,059541430324316025
4,995899200439453/1,151904821395874/0/0,8115610480308533/0,002417540643364191/0,12647999823093414/0,059541430324316025
4,995899200439453/1,159829020500183/0/0,8115610480308533/0,002417540643364191/0,12647999823093414/0,059541430324316025
4,995899200439453/1,160549521446228/0/0,8115610480308533/0,002417540643364191/0,12647999823093414/0,059541430324316025
4,995899200439453/1,1713553667068481/0/0,8115610480308533/0,002417540643364191/0,12647999823093414/0,059541430324316025
4,995899200439453/1,1915262937545776/0/0,8115610480308533/0,002417540643364191/0,12647999823093414/0,059541430324316025
4,995899200439453/1,1936874389648438/0/0,8115610480308533/0,002417540643364191/0,12647999823093414/0,059541430324316025
4,995899200439453/1,160549521446228/0/0,8115610480308533/0,002417540643364191/0,12647999823093414/0,059541430324316025
4,995899200439453/1,1699146032333374/0/0,8115610480308533/0,002417540643364191/0,12647999823093414/0,059541430324316025
4,995899200439453/1,1763980388641357/0/0,8115610480308533/0,002417540643364191/0,12647999823093414/0,059541430324316025
4,995899200439453/1,1670329570770264/0/0,8115610480308533/0,002417540643364191/0,12647999823093414/0,059541430324316025
4,995899200439453/1,181440830230713/0/0,8115610480308533/0,002417540643364191/0,12647999823093414/0,059541430324316025
4,995899200439453/1,2016117572784424/0/0,8115610480308533/0,002417540643364191/0,12647999823093414/0,059541430324316025
4,995899200439453/1,2311477661132812/0/0,8115610480308533/0,002417540643364191/0,12647999823093414/0,059541430324316025
4,995899200439453/1,1742368936538696/0/0,8115610480308533/0,002417540643364191/0,12647999823093414/0,059541430324316025
4,995899200439453/1,0964347124099731/0/0,8115610480308533/0,002417540643364191/0,12647999823093414/0,059541430324316025
4,995899200439453/1,1202075481414795/0/0,8115610480308533/0,002417540643364191/0,12647999823093414/0,059541430324316025
4,995899200439453/1,1540659666061401/0/0,8115610480308533/0,002417540643364191/0,12647999823093414/0,059541430324316025
4,995899200439453/1,1612699031829834/0/0,8115610480308533/0,002417540643364191/0,12647999823093414/0,059541430324316025
4,995899200439453/1,1699146032333374/0/0,8115610480308533/0,002417540643364191/0,12647999823093414/0,059541430324316025
4,995899200439453/1,1720757484436035/0/0,8115610480308533/0,002417540643364191/0,12647999823093414/0,059541430324316025
4,995899200439453/1,1785591840744019/0/0,8115610480308533/0,002417540643364191/0,12647999823093414/0,059541430324316025
4,995899200439453/1,1634310483932495/0/0,8115610480308533/0,002417540643364191/0,12647999823093414/0,059541430324316025
4,995899200439453/1,1699146032333374/0/0,8115610480308533/0,002417540643364191/0,12647999823093414/0,059541430324316025
4,995899200439453/1,183601975440979/0/0,8115610480308533/0,002417540643364191/0,12647999823093414/0,059541430324316025
4,995899200439453/1,166312575340271/0/0,8115610480308533/0,002417540643364191/0,12647999823093414/0,059541430324316025
4,995899200439453/1,1699146032333374/0/0,8115610480308533/0,002417540643364191/0,12647999823093414/0,059541430324316025
4,995899200439453/1,2145787477493286/0/0,8115610480308533/0,002417540643364191/0,12647999823093414/0,059541430324316025
4,995899200439453/1,2016117572784424/0/0,8115610480308533/0,002417540643364191/0,12647999823093414/0,059541430324316025
4,995899200439453/1,134615421295166/0/0,8115610480308533/0,002417540643364191/0,12647999823093414/0,059541430324316025
4,995899200439453/1,159829020500183/0/0,8115610480308533/0,002417540643364191/0,12647999823093414/0,059541430324316025
4,995899200439453/1,1778388023376465/0/0,8115610480308533/0,002417540643364191/0,12647999823093414/0,059541430324316025
4,995899200439453/1,1735165119171143/0/0,8115610480308533/0,002417540643364191/0,12647999823093414/0,059541430324316025
4,995899200439453/1,1756776571273804/0/0,8115610480308533/0,002417540643364191/0,12647999823093414/0,059541430324316025
4,995899200439453/1,2131379842758179/0/0,8115610480308533/0,002417540643364191/0,12647999823093414/0,059541430324316025
4,995899200439453/1,2080953121185303/0/0,8115610480308533/0,002417540643364191/0,12647999823093414/0,059541430324316025
4,995899200439453/1,1425397396087646/0/0,8115610480308533/0,002417540643364191/0,12647999823093414/0,059541430324316025
4,995899200439453/1,160549521446228/0/0,8115610480308533/0,002417540643364191/0,12647999823093414/0,059541430324316025
4,995899200439453/1,1648718118667603/0/0,8115610480308533/0,002417540643364191/0,12647999823093414/0,059541430324316025
4,995899200439453/1,166312575340271/0/0,8115610480308533/0,002417540643364191/0,12647999823093414/0,059541430324316025
4,995899200439453/1,1720757484436035/0/0,8115610480308533/0,002417540643364191/0,12647999823093414/0,059541430324316025
4,995899200439453/1,1778388023376465/0/0,8115610480308533/0,002417540643364191/0,12647999823093414/0,059541430324316025
4,995899200439453/1,1677533388137817/0/0,8115610480308533/0,002417540643364191/0,12647999823093414/0,059541430324316025
4,995899200439453/1,2023321390151978/0/0,8115610480308533/0,002417540643364191/0,12647999823093414/0,059541430324316025
4,995899200439453/1,1936874389648438/0/0,8115610480308533/0,002417540643364191/0,12647999823093414/0,059541430324316025
4,995899200439453/1,1425397396087646/0/0,8115610480308533/0,002417540643364191/0,12647999823093414/0,059541430324316025
4,995899200439453/1,1619902849197388/0/0,8115610480308533/0,002417540643364191/0,12647999823093414/0,059541430324316025
4,995899200439453/1,1619902849197388/0/0,8115610480308533/0,002417540643364191/0,12647999823093414/0,059541430324316025
4,995899200439453/1,1497435569763184/0/0,8115610480308533/0,002417540643364191/0,12647999823093414/0,059541430324316025
4,995899200439453/1,168473720550537/0/0,8115610480308533/0,002417540643364191/0,12647999823093414/0,059541430324316025
4,995899200439453/1,1677533388137817/0/0,8115610480308533/0,002417540643364191/0,12647999823093414/0,059541430324316025
4,995899200439453/1,1583882570266724/0/0,8115610480308533/0,002417540643364191/0,12647999823093414/0,059541430324316025
4,995899200439453/1,1720757484436035/0/0,8115610480308533/0,002417540643364191/0,12647999823093414/0,059541430324316025
4,995899200439453/1,192246675491333/0/0,8115610480308533/0,002417540643364191/0,12647999823093414/0,059541430324316025
4,995899200439453/1,181440830230713/0/0,8115610480308533/0,002417540643364191/0,12647999823093414/0,059541430324316025
4,995899200439453/1,1850427389144897/0/0,8115610480308533/0,002417540643364191/0,12647999823093414/0,059541430324316025
4,995899200439453/1,192246675491333/0/0,8115610480308533/0,002417540643364191/0,12647999823093414/0,059541430324316025
4,995899200439453/1,168473720550537/0/0,8115610480308533/0,002417540643364191/0,12647999823093414/0,059541430324316025
4,995899200439453/1,1425397396087646/0/0,8115610480308533/0,002417540643364191/0,12647999823093414/0,059541430324316025
4,995899200439453/1,1547863483428955/0/0,8115610480308533/0,002417540643364191/0,12647999823093414/0,059541430324316025
4,995899200439453/1,209536075592041/0/0,8115610480308533/0,002417540643364191/0,12647999823093414/0,059541430324316025
4,995899200439453/1,1850427389144897/0/0,8115610480308533/0,002417540643364191/0,12647999823093414/0,059541430324316025
4,995899200439453/1,1483027935028076/0/0,8115610480308533/0,002417540643364191/0,12647999823093414/0,059541430324316025
4,995899200439453/1,200891375541687/0/0,8115610480308533/0,002417540643364191/0,12647999823093414/0,059541430324316025
4,995899200439453/1,1367765665054321/0/0,8115610480308533/0,002417540643364191/0,12647999823093414/0,059541430324316025
4,995899200439453/1,1454212665557861/0/0,8115610480308533/0,002417540643364191/0,12647999823093414/0,059541430324316025
4,995899200439453/1,166312575340271/0/0,8115610480308533/0,002417540643364191/0,12647999823093414/0,059541430324316025
4,995899200439453/1,1641514301300049/0/0,8115610480308533/0,002417540643364191/0,12647999823093414/0,059541430324316025
4,995899200439453/1,1742368936538696/0/0,8115610480308533/0,002417540643364191/0,12647999823093414/0,059541430324316025
4,995899200439453/1,1706349849700928/0/0,8115610480308533/0,002417540643364191/0,12647999823093414/0,059541430324316025
4,995899200439453/1,168473720550537/0/0,8115610480308533/0,002417540643364191/0,12647999823093414/0,059541430324316025
4,995899200439453/1,159829020500183/0/0,8115610480308533/0,002417540643364191/0,12647999823093414/0,059541430324316025
4,995899200439453/1,1533455848693848/0/0,8115610480308533/0,002417540643364191/0,12647999823093414/0,059541430324316025
4,995899200439453/1,1562271118164062/0/0,8115610480308533/0,002417540643364191/0,12647999823093414/0,059541430324316025
4,995899200439453/1,1619902849197388/0/0,8115610480308533/0,002417540643364191/0,12647999823093414/0,059541430324316025
4,995899200439453/1,1670329570770264/0/0,8115610480308533/0,002417540643364191/0,12647999823093414/0,059541430324316025
4,995899200439453/1,160549521446228/0/0,8115610480308533/0,002417540643364191/0,12647999823093414/0,059541430324316025
4,995899200439453/1,1619902849197388/0/0,8115610480308533/0,002417540643364191/0,12647999823093414/0,059541430324316025
4,995899200439453/1,1569474935531616/0/0,8115610480308533/0,002417540643364191/0,12647999823093414/0,059541430324316025
4,995899200439453/1,1677533388137817/0/0,8115610480308533/0,002417540643364191/0,12647999823093414/0,059541430324316025
4,995899200439453/1,1648718118667603/0/0,8115610480308533/0,002417540643364191/0,12647999823093414/0,059541430324316025
4,995899200439453/1,1533455848693848/0/0,8115610480308533/0,002417540643364191/0,12647999823093414/0,059541430324316025
4,995899200439453/1,1857631206512451/0/0,8115610480308533/0,002417540643364191/0,12647999823093414/0,059541430324316025
4,995899200439453/1,2023321390151978/0/0,8115610480308533/0,002417540643364191/0,12647999823093414/0,059541430324316025
4,995899200439453/1,1547863483428955/0/0,8115610480308533/0,002417540643364191/0,12647999823093414/0,059541430324316025
4,995899200439453/1,1540659666061401/0/0,8115610480308533/0,002417540643364191/0,12647999823093414/0,059541430324316025
4,995899200439453/1,1310133934020996/0/0,8115610480308533/0,002417540643364191/0,12647999823093414/0,059541430324316025
4,995899200439453/1,1353358030319214/0/0,8115610480308533/0,002417540643364191/0,12647999823093414/0,059541430324316025
4,995899200439453/1,157667875289917/0/0,8115610480308533/0,002417540643364191/0,12647999823093414/0,059541430324316025
4,995899200439453/1,1619902849197388/0/0,8115610480308533/0,002417540643364191/0,12647999823093414/0,059541430324316025
4,995899200439453/1,168473720550537/0/0,8115610480308533/0,002417540643364191/0,12647999823093414/0,059541430324316025
4,995899200439453/1,1641514301300049/0/0,8115610480308533/0,002417540643364191/0,12647999823093414/0,059541430324316025
4,995899200439453/1,1619902849197388/0/0,8115610480308533/0,002417540643364191/0,12647999823093414/0,059541430324316025
4,995899200439453/1,1540659666061401/0/0,8115610480308533/0,002417540643364191/0,12647999823093414/0,059541430324316025
4,995899200439453/1,166312575340271/0/0,8115610480308533/0,002417540643364191/0,12647999823093414/0,059541430324316025
4,995899200439453/1,1706349849700928/0/0,8115610480308533/0,002417540643364191/0,12647999823093414/0,059541430324316025
4,995899200439453/1,1497435569763184/0/0,8115610480308533/0,002417540643364191/0,12647999823093414/0,059541430324316025
4,995899200439453/1,1619902849197388/0/0,8115610480308533/0,002417540643364191/0,12647999823093414/0,059541430324316025
4,995899200439453/1,1591086387634277/0/0,8115610480308533/0,002417540643364191/0,12647999823093414/0,059541430324316025
4,995899200439453/1,1785591840744019/0/0,8115610480308533/0,002417540643364191/0,12647999823093414/0,059541430324316025
4,995899200439453/1,2001709938049316/0/0,8115610480308533/0,002417540643364191/0,12647999823093414/0,059541430324316025
4,995899200439453/1,1569474935531616/0/0,8115610480308533/0,002417540643364191/0,12647999823093414/0,059541430324316025
4,995899200439453/1,2131379842758179/0/0,8115610480308533/0,002417540643364191/0,12647999823093414/0,059541430324316025
4,995899200439453/1,1252503395080566/0/0,8115610480308533/0,002417540643364191/0,12647999823093414/0,059541430324316025
4,995899200439453/1,1547863483428955/0/0,8115610480308533/0,002417540643364191/0,12647999823093414/0,059541430324316025
4,995899200439453/1,1627106666564941/0/0,8115610480308533/0,002417540643364191/0,12647999823093414/0,059541430324316025
4,995899200439453/1,1699146032333374/0/0,8115610480308533/0,002417540643364191/0,12647999823093414/0,059541430324316025
4,995899200439453/1,1742368936538696/0/0,8115610480308533/0,002417540643364191/0,12647999823093414/0,059541430324316025
4,995899200439453/1,1756776571273804/0/0,8115610480308533/0,002417540643364191/0,12647999823093414/0,059541430324316025
4,995899200439453/1,174957275390625/0/0,8115610480308533/0,002417540643364191/0,12647999823093414/0,059541430324316025
4,995899200439453/1,1511844396591187/0/0,8115610480308533/0,002417540643364191/0,12647999823093414/0,059541430324316025
4,995899200439453/1,1677533388137817/0/0,8115610480308533/0,002417540643364191/0,12647999823093414/0,059541430324316025
4,995899200439453/1,1763980388641357/0/0,8115610480308533/0,002417540643364191/0,12647999823093414/0,059541430324316025
4,995899200439453/1,1879242658615112/0/0,8115610480308533/0,002417540643364191/0,12647999823093414/0,059541430324316025
4,995899200439453/1,1850427389144897/0/0,8115610480308533/0,002417540643364191/0,12647999823093414/0,059541430324316025
4,995899200439453/1,2044932842254639/0/0,8115610480308533/0,002417540643364191/0,12647999823093414/0,059541430324316025
4,995899200439453/1,198730230331421/0/0,8115610480308533/0,002417540643364191/0,12647999823093414/0,059541430324316025
4,995899200439453/1,1511844396591187/0/0,8115610480308533/0,002417540643364191/0,12647999823093414/0,059541430324316025
4,995899200439453/1,1562271118164062/0/0,8115610480308533/0,002417540643364191/0,12647999823093414/0,059541430324316025
4,995899200439453/1,1828815937042236/0/0,8115610480308533/0,002417540643364191/0,12647999823093414/0,059541430324316025
4,995899200439453/1,1944078207015991/0/0,8115610480308533/0,002417540643364191/0,12647999823093414/0,059541430324316025
4,995899200439453/1,1944078207015991/0/0,8115610480308533/0,002417540643364191/0,12647999823093414/0,059541430324316025
4,995899200439453/1,2469964027404785/0/0,8115610480308533/0,002417540643364191/0,12647999823093414/0,059541430324316025
4,995899200439453/1,1756776571273804/0/0,8115610480308533/0,002417540643364191/0,12647999823093414/0,059541430324316025
4,995899200439453/1,1526252031326294/0/0,8115610480308533/0,002417540643364191/0,12647999823093414/0,059541430324316025
4,995899200439453/1,1612699031829834/0/0,8115610480308533/0,002417540643364191/0,12647999823093414/0,059541430324316025
4,995899200439453/1,1792796850204468/0/0,8115610480308533/0,002417540643364191/0,12647999823093414/0,059541430324316025
4,995899200439453/1,1763980388641357/0/0,8115610480308533/0,002417540643364191/0,12647999823093414/0,059541430324316025
4,995899200439453/1,1713553667068481/0/0,8115610480308533/0,002417540643364191/0,12647999823093414/0,059541430324316025
4,995899200439453/1,1677533388137817/0/0,8115610480308533/0,002417540643364191/0,12647999823093414/0,059541430324316025
4,995899200439453/1,1670329570770264/0/0,8115610480308533/0,002417540643364191/0,12647999823093414/0,059541430324316025
4,995899200439453/1,1792796850204468/0/0,8115610480308533/0,002417540643364191/0,12647999823093414/0,059541430324316025
4,995899200439453/1,1821612119674683/0/0,8115610480308533/0,002417540643364191/0,12647999823093414/0,059541430324316025
4,995899200439453/1,168473720550537/0/0,8115610480308533/0,002417540643364191/0,12647999823093414/0,059541430324316025
4,995899200439453/1,1526252031326294/0/0,8115610480308533/0,002417540643364191/0,12647999823093414/0,059541430324316025
4,995899200439453/1,1591086387634277/0/0,8115610480308533/0,002417540643364191/0,12647999823093414/0,059541430324316025
4,995899200439453/1,1756776571273804/0/0,8115610480308533/0,002417540643364191/0,12647999823093414/0,059541430324316025
4,995899200439453/1,1792796850204468/0/0,8115610480308533/0,002417540643364191/0,12647999823093414/0,059541430324316025
4,995899200439453/1,1497435569763184/0/0,8115610480308533/0,002417540643364191/0,12647999823093414/0,059541430324316025
4,995899200439453/1,1727961301803589/0/0,8115610480308533/0,002417540643364191/0,12647999823093414/0,059541430324316025
4,995899200439453/1,2001709938049316/0/0,8115610480308533/0,002417540643364191/0,12647999823093414/0,059541430324316025
4,995899200439453/1,1418193578720093/0/0,8115610480308533/0,002417540643364191/0,12647999823093414/0,059541430324316025
4,995899200439453/1,2088156938552856/0/0,8115610480308533/0,002417540643364191/0,12647999823093414/0,059541430324316025
6,066427707672119/1,1569474935531616/0/0,8470056653022766/0,002256999956443906/0,1253669112920761/0,025370348244905472
6,066427707672119/1,1360561847686768/0/0,8470056653022766/0,002256999956443906/0,1253669112920761/0,025370348244905472
6,066427707672119/1,1274114847183228/0/0,8470056653022766/0,002256999956443906/0,1253669112920761/0,025370348244905472
6,066427707672119/1,1367765665054321/0/0,8470056653022766/0,002256999956443906/0,1253669112920761/0,025370348244905472
6,066427707672119/1,1418193578720093/0/0,8470056653022766/0,002256999956443906/0,1253669112920761/0,025370348244905472
6,066427707672119/1,1425397396087646/0/0,8470056653022766/0,002256999956443906/0,1253669112920761/0,025370348244905472
6,066427707672119/1,1447008848190308/0/0,8470056653022766/0,002256999956443906/0,1253669112920761/0,025370348244905472
6,066427707672119/1,1396580934524536/0/0,8470056653022766/0,002256999956443906/0,1253669112920761/0,025370348244905472
6,066427707672119/1,1454212665557861/0/0,8470056653022766/0,002256999956443906/0,1253669112920761/0,025370348244905472
6,066427707672119/1,1555067300796509/0/0,8470056653022766/0,002256999956443906/0,1253669112920761/0,025370348244905472
6,066427707672119/1,1497435569763184/0/0,8470056653022766/0,002256999956443906/0,1253669112920761/0,025370348244905472
6,066427707672119/1,1483027935028076/0/0,8470056653022766/0,002256999956443906/0,1253669112920761/0,025370348244905472
6,066427707672119/1,14326012134552/0/0,8470056653022766/0,002256999956443906/0,1253669112920761/0,025370348244905472
6,066427707672119/1,1526252031326294/0/0,8470056653022766/0,002256999956443906/0,1253669112920761/0,025370348244905472
6,066427707672119/1,1526252031326294/0/0,8470056653022766/0,002256999956443906/0,1253669112920761/0,025370348244905472
6,066427707672119/1,1497435569763184/0/0,8470056653022766/0,002256999956443906/0,1253669112920761/0,025370348244905472
6,066427707672119/1,1591086387634277/0/0,8470056653022766/0,002256999956443906/0,1253669112920761/0,025370348244905472
6,066427707672119/1,1555067300796509/0/0,8470056653022766/0,002256999956443906/0,1253669112920761/0,025370348244905472
6,066427707672119/1,1562271118164062/0/0,8470056653022766/0,002256999956443906/0,1253669112920761/0,025370348244905472
6,066427707672119/1,174957275390625/0/0,8470056653022766/0,002256999956443906/0,1253669112920761/0,025370348244905472
6,066427707672119/1,1699146032333374/0/0,8470056653022766/0,002256999956443906/0,1253669112920761/0,025370348244905472
6,066427707672119/1,1691941022872925/0/0,8470056653022766/0,002256999956443906/0,1253669112920761/0,025370348244905472
6,066427707672119/1,1720757484436035/0/0,8470056653022766/0,002256999956443906/0,1253669112920761/0,025370348244905472
6,066427707672119/1,1850427389144897/0/0,8470056653022766/0,002256999956443906/0,1253669112920761/0,025370348244905472
6,066427707672119/1,1792796850204468/0/0,8470056653022766/0,002256999956443906/0,1253669112920761/0,025370348244905472
6,066427707672119/1,1756776571273804/0/0,8470056653022766/0,002256999956443906/0,1253669112920761/0,025370348244905472
6,066427707672119/1,1886446475982666/0/0,8470056653022766/0,002256999956443906/0,1253669112920761/0,025370348244905472
6,066427707672119/1,1908059120178223/0/0,8470056653022766/0,002256999956443906/0,1253669112920761/0,025370348244905472
6,066427707672119/1,1886446475982666/0/0,8470056653022766/0,002256999956443906/0,1253669112920761/0,025370348244905472
6,066427707672119/1,1893651485443115/0/0,8470056653022766/0,002256999956443906/0,1253669112920761/0,025370348244905472
6,066427707672119/1,1778388023376465/0/0,8470056653022766/0,002256999956443906/0,1253669112920761/0,025370348244905472
6,066427707672119/1,1727961301803589/0/0,8470056653022766/0,002256999956443906/0,1253669112920761/0,025370348244905472
6,066427707672119/1,1800000667572021/0/0,8470056653022766/0,002256999956443906/0,1253669112920761/0,025370348244905472
6,066427707672119/1,1864835023880005/0/0,8470056653022766/0,002256999956443906/0,1253669112920761/0,025370348244905472
6,066427707672119/1,1879242658615112/0/0,8470056653022766/0,002256999956443906/0,1253669112920761/0,025370348244905472
6,066427707672119/1,1908059120178223/0/0,8470056653022766/0,002256999956443906/0,1253669112920761/0,025370348244905472
6,066427707672119/1,1908059120178223/0/0,8470056653022766/0,002256999956443906/0,1253669112920761/0,025370348244905472
6,066427707672119/1,160549521446228/0/0,8470056653022766/0,002256999956443906/0,1253669112920761/0,025370348244905472
6,066427707672119/1,1619902849197388/0/0,8470056653022766/0,002256999956443906/0,1253669112920761/0,025370348244905472
6,066427707672119/1,1612699031829834/0/0,8470056653022766/0,002256999956443906/0,1253669112920761/0,025370348244905472
6,066427707672119/1,1785591840744019/0/0,8470056653022766/0,002256999956443906/0,1253669112920761/0,025370348244905472
6,066427707672119/1,1699146032333374/0/0,8470056653022766/0,002256999956443906/0,1253669112920761/0,025370348244905472
6,066427707672119/1,1627106666564941/0/0,8470056653022766/0,002256999956443906/0,1253669112920761/0,025370348244905472
6,066427707672119/1,166312575340271/0/0,8470056653022766/0,002256999956443906/0,1253669112920761/0,025370348244905472
6,066427707672119/1,1821612119674683/0/0,8470056653022766/0,002256999956443906/0,1253669112920761/0,025370348244905472
6,066427707672119/1,1936874389648438/0/0,8470056653022766/0,002256999956443906/0,1253669112920761/0,025370348244905472
6,066427707672119/1,2052136659622192/0/0,8470056653022766/0,002256999956443906/0,1253669112920761/0,025370348244905472
6,066427707672119/1,1742368936538696/0/0,8470056653022766/0,002256999956443906/0,1253669112920761/0,025370348244905472
6,066427707672119/1,1562271118164062/0/0,8470056653022766/0,002256999956443906/0,1253669112920761/0,025370348244905472
6,066427707672119/1,141098976135254/0/0,8470056653022766/0,002256999956443906/0,1253669112920761/0,025370348244905472
6,066427707672119/1,1396580934524536/0/0,8470056653022766/0,002256999956443906/0,1253669112920761/0,025370348244905472
6,066427707672119/1,1461416482925415/0/0,8470056653022766/0,002256999956443906/0,1253669112920761/0,025370348244905472
6,066427707672119/1,1627106666564941/0/0,8470056653022766/0,002256999956443906/0,1253669112920761/0,025370348244905472
6,066427707672119/1,1800000667572021/0/0,8470056653022766/0,002256999956443906/0,1253669112920761/0,025370348244905472
6,066427707672119/1,160549521446228/0/0,8470056653022766/0,002256999956443906/0,1253669112920761/0,025370348244905472
6,066427707672119/1,1497435569763184/0/0,8470056653022766/0,002256999956443906/0,1253669112920761/0,025370348244905472
6,066427707672119/1,157667875289917/0/0,8470056653022766/0,002256999956443906/0,1253669112920761/0,025370348244905472
6,066427707672119/1,1396580934524536/0/0,8470056653022766/0,002256999956443906/0,1253669112920761/0,025370348244905472
6,066427707672119/1,1288522481918335/0/0,8470056653022766/0,002256999956443906/0,1253669112920761/0,025370348244905472
6,066427707672119/1,1497435569763184/0/0,8470056653022766/0,002256999956443906/0,1253669112920761/0,025370348244905472
6,066427707672119/1,1619902849197388/0/0,8470056653022766/0,002256999956443906/0,1253669112920761/0,025370348244905472
6,066427707672119/1,1555067300796509/0/0,8470056653022766/0,002256999956443906/0,1253669112920761/0,025370348244905472
6,066427707672119/1,1720757484436035/0/0,8470056653022766/0,002256999956443906/0,1253669112920761/0,025370348244905472
6,066427707672119/1,1785591840744019/0/0,8470056653022766/0,002256999956443906/0,1253669112920761/0,025370348244905472
6,066427707672119/1,1591086387634277/0/0,8470056653022766/0,002256999956443906/0,1253669112920761/0,025370348244905472
6,066427707672119/1,1670329570770264/0/0,8470056653022766/0,002256999956443906/0,1253669112920761/0,025370348244905472
6,066427707672119/1,168473720550537/0/0,8470056653022766/0,002256999956443906/0,1253669112920761/0,025370348244905472
6,066427707672119/1,1389377117156982/0/0,8470056653022766/0,002256999956443906/0,1253669112920761/0,025370348244905472
6,066427707672119/1,1504640579223633/0/0,8470056653022766/0,002256999956443906/0,1253669112920761/0,025370348244905472
6,066427707672119/1,168473720550537/0/0,8470056653022766/0,002256999956443906/0,1253669112920761/0,025370348244905472
6,066427707672119/1,1771184206008911/0/0,8470056653022766/0,002256999956443906/0,1253669112920761/0,025370348244905472
6,066427707672119/1,198009729385376/0/0,8470056653022766/0,002256999956443906/0,1253669112920761/0,025370348244905472
6,066427707672119/1,1202075481414795/0/0,8470056653022766/0,002256999956443906/0,1253669112920761/0,025370348244905472
6,066427707672119/1,1454212665557861/0/0,8470056653022766/0,002256999956443906/0,1253669112920761/0,025370348244905472
6,066427707672119/1,1627106666564941/0/0,8470056653022766/0,002256999956443906/0,1253669112920761/0,025370348244905472
6,066427707672119/1,1396580934524536/0/0,8470056653022766/0,002256999956443906/0,1253669112920761/0,025370348244905472
6,066427707672119/1,14326012134552/0/0,8470056653022766/0,002256999956443906/0,1253669112920761/0,025370348244905472
6,066427707672119/1,1425397396087646/0/0,8470056653022766/0,002256999956443906/0,1253669112920761/0,025370348244905472
6,066427707672119/1,1655921936035156/0/0,8470056653022766/0,002256999956443906/0,1253669112920761/0,025370348244905472
6,066427707672119/1,1699146032333374/0/0,8470056653022766/0,002256999956443906/0,1253669112920761/0,025370348244905472
6,066427707672119/1,1483027935028076/0/0,8470056653022766/0,002256999956443906/0,1253669112920761/0,025370348244905472
6,066427707672119/1,1727961301803589/0/0,8470056653022766/0,002256999956443906/0,1253669112920761/0,025370348244905472
6,066427707672119/1,1713553667068481/0/0,8470056653022766/0,002256999956443906/0,1253669112920761/0,025370348244905472
6,066427707672119/1,1555067300796509/0/0,8470056653022766/0,002256999956443906/0,1253669112920761/0,025370348244905472
6,066427707672119/1,1627106666564941/0/0,8470056653022766/0,002256999956443906/0,1253669112920761/0,025370348244905472
6,066427707672119/1,1735165119171143/0/0,8470056653022766/0,002256999956443906/0,1253669112920761/0,025370348244905472
6,066427707672119/1,1648718118667603/0/0,8470056653022766/0,002256999956443906/0,1253669112920761/0,025370348244905472
6,066427707672119/1,1655921936035156/0/0,8470056653022766/0,002256999956443906/0,1253669112920761/0,025370348244905472
6,066427707672119/1,1691941022872925/0/0,8470056653022766/0,002256999956443906/0,1253669112920761/0,025370348244905472
6,066427707672119/1,1951282024383545/0/0,8470056653022766/0,002256999956443906/0,1253669112920761/0,025370348244905472
6,066427707672119/1,2131379842758179/0/0,8470056653022766/0,002256999956443906/0,1253669112920761/0,025370348244905472
6,066427707672119/1,1331746578216553/0/0,8470056653022766/0,002256999956443906/0,1253669112920761/0,025370348244905472
6,066427707672119/1,1338950395584106/0/0,8470056653022766/0,002256999956443906/0,1253669112920761/0,025370348244905472
6,066427707672119/1,1727961301803589/0/0,8470056653022766/0,002256999956443906/0,1253669112920761/0,025370348244905472
6,066427707672119/1,1641514301300049/0/0,8470056653022766/0,002256999956443906/0,1253669112920761/0,025370348244905472
6,066427707672119/1,1763980388641357/0/0,8470056653022766/0,002256999956443906/0,1253669112920761/0,025370348244905472
6,066427707672119/1,1756776571273804/0/0,8470056653022766/0,002256999956443906/0,1253669112920761/0,025370348244905472
6,066427707672119/1,1778388023376465/0/0,8470056653022766/0,002256999956443906/0,1253669112920761/0,025370348244905472
6,066427707672119/1,1756776571273804/0/0,8470056653022766/0,002256999956443906/0,1253669112920761/0,025370348244905472
6,066427707672119/1,1929670572280884/0/0,8470056653022766/0,002256999956443906/0,1253669112920761/0,025370348244905472
6,066427707672119/1,2131379842758179/0/0,8470056653022766/0,002256999956443906/0,1253669112920761/0,025370348244905472
6,066427707672119/1,1533455848693848/0/0,8470056653022766/0,002256999956443906/0,1253669112920761/0,025370348244905472
6,066427707672119/1,1555067300796509/0/0,8470056653022766/0,002256999956443906/0,1253669112920761/0,025370348244905472
6,066427707672119/1,1648718118667603/0/0,8470056653022766/0,002256999956443906/0,1253669112920761/0,025370348244905472
6,066427707672119/1,1699146032333374/0/0,8470056653022766/0,002256999956443906/0,1253669112920761/0,025370348244905472
6,066427707672119/1,1562271118164062/0/0,8470056653022766/0,002256999956443906/0,1253669112920761/0,025370348244905472
6,066427707672119/1,1562271118164062/0/0,8470056653022766/0,002256999956443906/0,1253669112920761/0,025370348244905472
6,066427707672119/1,1555067300796509/0/0,8470056653022766/0,002256999956443906/0,1253669112920761/0,025370348244905472
6,066427707672119/1,160549521446228/0/0,8470056653022766/0,002256999956443906/0,1253669112920761/0,025370348244905472
6,066427707672119/1,198009729385376/0/0,8470056653022766/0,002256999956443906/0,1253669112920761/0,025370348244905472
6,066427707672119/1,2289866209030151/0/0,8470056653022766/0,002256999956443906/0,1253669112920761/0,025370348244905472
6,066427707672119/1,1245299577713013/0/0,8470056653022766/0,002256999956443906/0,1253669112920761/0,025370348244905472
6,066427707672119/1,1360561847686768/0/0,8470056653022766/0,002256999956443906/0,1253669112920761/0,025370348244905472
6,066427707672119/1,151904821395874/0/0,8470056653022766/0,002256999956443906/0,1253669112920761/0,025370348244905472
6,066427707672119/1,1670329570770264/0/0,8470056653022766/0,002256999956443906/0,1253669112920761/0,025370348244905472
6,066427707672119/1,1677533388137817/0/0,8470056653022766/0,002256999956443906/0,1253669112920761/0,025370348244905472
6,066427707672119/1,1879242658615112/0/0,8470056653022766/0,002256999956443906/0,1253669112920761/0,025370348244905472
6,066427707672119/1,190085530281067/0/0,8470056653022766/0,002256999956443906/0,1253669112920761/0,025370348244905472
6,066427707672119/1,1691941022872925/0/0,8470056653022766/0,002256999956443906/0,1253669112920761/0,025370348244905472
6,066427707672119/1,174957275390625/0/0,8470056653022766/0,002256999956443906/0,1253669112920761/0,025370348244905472
6,066427707672119/1,2138583660125732/0/0,8470056653022766/0,002256999956443906/0,1253669112920761/0,025370348244905472
6,066427707672119/1,1396580934524536/0/0,8470056653022766/0,002256999956443906/0,1253669112920761/0,025370348244905472
6,066427707672119/1,1483027935028076/0/0,8470056653022766/0,002256999956443906/0,1253669112920761/0,025370348244905472
6,066427707672119/1,1670329570770264/0/0,8470056653022766/0,002256999956443906/0,1253669112920761/0,025370348244905472
6,066427707672119/1,1706349849700928/0/0,8470056653022766/0,002256999956443906/0,1253669112920761/0,025370348244905472
6,066427707672119/1,209536075592041/0/0,8470056653022766/0,002256999956443906/0,1253669112920761/0,025370348244905472
6,066427707672119/1,2109768390655518/0/0,8470056653022766/0,002256999956443906/0,1253669112920761/0,025370348244905472
6,066427707672119/1,1324542760849/0/0,8470056653022766/0,002256999956443906/0,1253669112920761/0,025370348244905472
6,066427707672119/1,149023175239563/0/0,8470056653022766/0,002256999956443906/0,1253669112920761/0,025370348244905472
6,066427707672119/1,168473720550537/0/0,8470056653022766/0,002256999956443906/0,1253669112920761/0,025370348244905472
6,066427707672119/1,160549521446228/0/0,8470056653022766/0,002256999956443906/0,1253669112920761/0,025370348244905472
6,066427707672119/1,1555067300796509/0/0,8470056653022766/0,002256999956443906/0,1253669112920761/0,025370348244905472
6,066427707672119/1,1727961301803589/0/0,8470056653022766/0,002256999956443906/0,1253669112920761/0,025370348244905472
6,066427707672119/1,1785591840744019/0/0,8470056653022766/0,002256999956443906/0,1253669112920761/0,025370348244905472
6,066427707672119/1,1691941022872925/0/0,8470056653022766/0,002256999956443906/0,1253669112920761/0,025370348244905472
6,066427707672119/1,1511844396591187/0/0,8470056653022766/0,002256999956443906/0,1253669112920761/0,025370348244905472
6,066427707672119/1,1555067300796509/0/0,8470056653022766/0,002256999956443906/0,1253669112920761/0,025370348244905472
6,066427707672119/1,1591086387634277/0/0,8470056653022766/0,002256999956443906/0,1253669112920761/0,025370348244905472
6,066427707672119/1,1713553667068481/0/0,8470056653022766/0,002256999956443906/0,1253669112920761/0,025370348244905472
6,066427707672119/1,183601975440979/0/0,8470056653022766/0,002256999956443906/0,1253669112920761/0,025370348244905472
6,066427707672119/1,1929670572280884/0/0,8470056653022766/0,002256999956443906/0,1253669112920761/0,025370348244905472
6,066427707672119/1,1317338943481445/0/0,8470056653022766/0,002256999956443906/0,1253669112920761/0,025370348244905472
6,066427707672119/1,1562271118164062/0/0,8470056653022766/0,002256999956443906/0,1253669112920761/0,025370348244905472
6,066427707672119/1,1504640579223633/0/0,8470056653022766/0,002256999956443906/0,1253669112920761/0,025370348244905472
6,066427707672119/1,149023175239563/0/0,8470056653022766/0,002256999956443906/0,1253669112920761/0,025370348244905472
6,066427707672119/1,1857631206512451/0/0,8470056653022766/0,002256999956443906/0,1253669112920761/0,025370348244905472
6,066427707672119/1,1699146032333374/0/0,8470056653022766/0,002256999956443906/0,1253669112920761/0,025370348244905472
6,066427707672119/1,1158852577209473/0/0,8470056653022766/0,002256999956443906/0,1253669112920761/0,025370348244905472
6,066427707672119/1,1439805030822754/0/0,8470056653022766/0,002256999956443906/0,1253669112920761/0,025370348244905472
6,066427707672119/1,1555067300796509/0/0,8470056653022766/0,002256999956443906/0,1253669112920761/0,025370348244905472
6,066427707672119/1,1591086387634277/0/0,8470056653022766/0,002256999956443906/0,1253669112920761/0,025370348244905472
6,066427707672119/1,166312575340271/0/0,8470056653022766/0,002256999956443906/0,1253669112920761/0,025370348244905472
6,066427707672119/1,1735165119171143/0/0,8470056653022766/0,002256999956443906/0,1253669112920761/0,025370348244905472
6,066427707672119/1,1670329570770264/0/0,8470056653022766/0,002256999956443906/0,1253669112920761/0,025370348244905472
6,066427707672119/1,159829020500183/0/0,8470056653022766/0,002256999956443906/0,1253669112920761/0,025370348244905472
6,066427707672119/1,166312575340271/0/0,8470056653022766/0,002256999956443906/0,1253669112920761/0,025370348244905472
6,066427707672119/1,1591086387634277/0/0,8470056653022766/0,002256999956443906/0,1253669112920761/0,025370348244905472
6,066427707672119/1,1655921936035156/0/0,8470056653022766/0,002256999956443906/0,1253669112920761/0,025370348244905472
6,066427707672119/1,1727961301803589/0/0,8470056653022766/0,002256999956443906/0,1253669112920761/0,025370348244905472
6,066427707672119/1,1742368936538696/0/0,8470056653022766/0,002256999956443906/0,1253669112920761/0,025370348244905472
6,066427707672119/1,1778388023376465/0/0,8470056653022766/0,002256999956443906/0,1253669112920761/0,025370348244905472
6,066427707672119/1,183601975440979/0/0,8470056653022766/0,002256999956443906/0,1253669112920761/0,025370348244905472
6,066427707672119/1,168473720550537/0/0,8470056653022766/0,002256999956443906/0,1253669112920761/0,025370348244905472
6,066427707672119/1,1670329570770264/0/0,8470056653022766/0,002256999956443906/0,1253669112920761/0,025370348244905472
6,066427707672119/1,1936874389648438/0/0,8470056653022766/0,002256999956443906/0,1253669112920761/0,025370348244905472
6,066427707672119/1,1944078207015991/0/0,8470056653022766/0,002256999956443906/0,1253669112920761/0,025370348244905472
6,066427707672119/1,1908059120178223/0/0,8470056653022766/0,002256999956443906/0,1253669112920761/0,025370348244905472
6,066427707672119/1,190085530281067/0/0,8470056653022766/0,002256999956443906/0,1253669112920761/0,025370348244905472
6,066427707672119/1,1843223571777344/0/0,8470056653022766/0,002256999956443906/0,1253669112920761/0,025370348244905472
6,066427707672119/1,1699146032333374/0/0,8470056653022766/0,002256999956443906/0,1253669112920761/0,025370348244905472
6,066427707672119/1,1771184206008911/0/0,8470056653022766/0,002256999956443906/0,1253669112920761/0,025370348244905472
6,066427707672119/1,2203419208526611/0/0,8470056653022766/0,002256999956443906/0,1253669112920761/0,025370348244905472
6,066427707672119/1,1828815937042236/0/0,8470056653022766/0,002256999956443906/0,1253669112920761/0,025370348244905472
6,066427707672119/1,1425397396087646/0/0,8470056653022766/0,002256999956443906/0,1253669112920761/0,025370348244905472
6,066427707672119/1,1655921936035156/0/0,8470056653022766/0,002256999956443906/0,1253669112920761/0,025370348244905472
6,066427707672119/1,1655921936035156/0/0,8470056653022766/0,002256999956443906/0,1253669112920761/0,025370348244905472
6,066427707672119/1,1569474935531616/0/0,8470056653022766/0,002256999956443906/0,1253669112920761/0,025370348244905472
6,066427707672119/1,1699146032333374/0/0,8470056653022766/0,002256999956443906/0,1253669112920761/0,025370348244905472
6,066427707672119/1,1756776571273804/0/0,8470056653022766/0,002256999956443906/0,1253669112920761/0,025370348244905472
6,066427707672119/1,1756776571273804/0/0,8470056653022766/0,002256999956443906/0,1253669112920761/0,025370348244905472
6,066427707672119/1,1828815937042236/0/0,8470056653022766/0,002256999956443906/0,1253669112920761/0,025370348244905472
6,066427707672119/1,1735165119171143/0/0,8470056653022766/0,002256999956443906/0,1253669112920761/0,025370348244905472
6,066427707672119/1,1533455848693848/0/0,8470056653022766/0,002256999956443906/0,1253669112920761/0,025370348244905472
6,066427707672119/1,1648718118667603/0/0,8470056653022766/0,002256999956443906/0,1253669112920761/0,025370348244905472
6,066427707672119/1,1763980388641357/0/0,8470056653022766/0,002256999956443906/0,1253669112920761/0,025370348244905472
6,066427707672119/1,1720757484436035/0/0,8470056653022766/0,002256999956443906/0,1253669112920761/0,025370348244905472
6,066427707672119/1,168473720550537/0/0,8470056653022766/0,002256999956443906/0,1253669112920761/0,025370348244905472
6,066427707672119/1,1807204484939575/0/0,8470056653022766/0,002256999956443906/0,1253669112920761/0,025370348244905472
6,066427707672119/1,1785591840744019/0/0,8470056653022766/0,002256999956443906/0,1253669112920761/0,025370348244905472
6,066427707672119/1,1699146032333374/0/0,8470056653022766/0,002256999956443906/0,1253669112920761/0,025370348244905472
6,066427707672119/1,1706349849700928/0/0,8470056653022766/0,002256999956443906/0,1253669112920761/0,025370348244905472
6,066427707672119/1,1735165119171143/0/0,8470056653022766/0,002256999956443906/0,1253669112920761/0,025370348244905472
6,066427707672119/1,1612699031829834/0/0,8470056653022766/0,002256999956443906/0,1253669112920761/0,025370348244905472
6,066427707672119/1,1655921936035156/0/0,8470056653022766/0,002256999956443906/0,1253669112920761/0,025370348244905472
6,066427707672119/1,183601975440979/0/0,8470056653022766/0,002256999956443906/0,1253669112920761/0,025370348244905472
6,066427707672119/1,2001709938049316/0/0,8470056653022766/0,002256999956443906/0,1253669112920761/0,025370348244905472
6,066427707672119/1,1274114847183228/0/0,8470056653022766/0,002256999956443906/0,1253669112920761/0,025370348244905472
6,066427707672119/1,140378475189209/0/0,8470056653022766/0,002256999956443906/0,1253669112920761/0,025370348244905472
6,066427707672119/1,157667875289917/0/0,8470056653022766/0,002256999956443906/0,1253669112920761/0,025370348244905472
6,066427707672119/1,1504640579223633/0/0,8470056653022766/0,002256999956443906/0,1253669112920761/0,025370348244905472
7,252116680145264/0,9710867404937744/2/0,2929871380329132/0,3148571848869324/0,35465356707572937/0,03750210627913475
7,252116680145264/1,157667875289917/2/0,2929871380329132/0,3148571848869324/0,35465356707572937/0,03750210627913475
7,252116680145264/1,1475824117660522/2/0,2929871380329132/0,3148571848869324/0,35465356707572937/0,03750210627913475
