time/input_data/output_state/rest/grip/hold/release
4,995984792709351/1,1655921936035156/2/0,25145673751831055/0,2685075104236603/0,3189927935600281/0,1610429286956787
4,995984792709351/1,1713553667068481/2/0,25145673751831055/0,2685075104236603/0,3189927935600281/0,1610429286956787
4,995984792709351/1,1778388023376465/2/0,25145673751831055/0,2685075104236603/0,3189927935600281/0,1610429286956787
4,995984792709351/1,1850427389144897/2/0,25145673751831055/0,2685075104236603/0,3189927935600281/0,1610429286956787
4,995984792709351/1,1641514301300049/2/0,25145673751831055/0,2685075104236603/0,3189927935600281/0,1610429286956787
4,995984792709351/1,1821612119674683/2/0,25145673751831055/0,2685075104236603/0,3189927935600281/0,1610429286956787
4,995984792709351/1,1864835023880005/2/0,25145673751831055/0,2685075104236603/0,3189927935600281/0,1610429286956787
4,995984792709351/1,1720757484436035/2/0,25145673751831055/0,2685075104236603/0,3189927935600281/0,1610429286956787
4,995984792709351/1,1828815937042236/2/0,25145673751831055/0,2685075104236603/0,3189927935600281/0,1610429286956787
4,995984792709351/1,1735165119171143/2/0,25145673751831055/0,2685075104236603/0,3189927935600281/0,1610429286956787
4,995984792709351/1,1655921936035156/2/0,25145673751831055/0,2685075104236603/0,3189927935600281/0,1610429286956787
4,995984792709351/1,151904821395874/2/0,25145673751831055/0,2685075104236603/0,3189927935600281/0,1610429286956787
4,995984792709351/1,1670329570770264/2/0,25145673751831055/0,2685075104236603/0,3189927935600281/0,1610429286956787
4,995984792709351/1,168473720550537/2/0,25145673751831055/0,2685075104236603/0,3189927935600281/0,1610429286956787
4,995984792709351/1,1612699031829834/2/0,25145673751831055/0,2685075104236603/0,3189927935600281/0,1610429286956787
4,995984792709351/1,1655921936035156/2/0,25145673751831055/0,2685075104236603/0,3189927935600281/0,1610429286956787
4,995984792709351/1,1583882570266724/2/0,25145673751831055/0,2685075104236603/0,3189927935600281/0,1610429286956787
4,995984792709351/1,1547863483428955/2/0,25145673751831055/0,2685075104236603/0,3189927935600281/0,1610429286956787
4,995984792709351/1,1713553667068481/2/0,25145673751831055/0,2685075104236603/0,3189927935600281/0,1610429286956787
4,995984792709351/1,181440830230713/2/0,25145673751831055/0,2685075104236603/0,3189927935600281/0,1610429286956787
4,995984792709351/1,1454212665557861/2/0,25145673751831055/0,2685075104236603/0,3189927935600281/0,1610429286956787
4,995984792709351/1,1483027935028076/2/0,25145673751831055/0,2685075104236603/0,3189927935600281/0,1610429286956787
4,995984792709351/1,1511844396591187/2/0,25145673751831055/0,2685075104236603/0,3189927935600281/0,1610429286956787
4,995984792709351/1,1591086387634277/2/0,25145673751831055/0,2685075104236603/0,3189927935600281/0,1610429286956787
4,995984792709351/1,166312575340271/2/0,25145673751831055/0,2685075104236603/0,3189927935600281/0,1610429286956787
4,995984792709351/1,1619902849197388/2/0,25145673751831055/0,2685075104236603/0,3189927935600281/0,1610429286956787
4,995984792709351/1,1447008848190308/2/0,25145673751831055/0,2685075104236603/0,3189927935600281/0,1610429286956787
4,995984792709351/1,1497435569763184/2/0,25145673751831055/0,2685075104236603/0,3189927935600281/0,1610429286956787
4,995984792709351/1,1655921936035156/2/0,25145673751831055/0,2685075104236603/0,3189927935600281/0,1610429286956787
4,995984792709351/1,1591086387634277/2/0,25145673751831055/0,2685075104236603/0,3189927935600281/0,1610429286956787
4,995984792709351/1,1634310483932495/2/0,25145673751831055/0,2685075104236603/0,3189927935600281/0,1610429286956787
4,995984792709351/1,1785591840744019/2/0,25145673751831055/0,2685075104236603/0,3189927935600281/0,1610429286956787
4,995984792709351/1,1720757484436035/2/0,25145673751831055/0,2685075104236603/0,3189927935600281/0,1610429286956787
4,995984792709351/1,1547863483428955/2/0,25145673751831055/0,2685075104236603/0,3189927935600281/0,1610429286956787
4,995984792709351/1,1641514301300049/2/0,25145673751831055/0,2685075104236603/0,3189927935600281/0,1610429286956787
4,995984792709351/1,1533455848693848/2/0,25145673751831055/0,2685075104236603/0,3189927935600281/0,1610429286956787
4,995984792709351/1,1511844396591187/2/0,25145673751831055/0,2685075104236603/0,3189927935600281/0,1610429286956787
4,995984792709351/1,1670329570770264/2/0,25145673751831055/0,2685075104236603/0,3189927935600281/0,1610429286956787
4,995984792709351/1,1648718118667603/2/0,25145673751831055/0,2685075104236603/0,3189927935600281/0,1610429286956787
4,995984792709351/1,1619902849197388/2/0,25145673751831055/0,2685075104236603/0,3189927935600281/0,1610429286956787
4,995984792709351/1,1706349849700928/2/0,25145673751831055/0,2685075104236603/0,3189927935600281/0,1610429286956787
4,995984792709351/1,1627106666564941/2/0,25145673751831055/0,2685075104236603/0,3189927935600281/0,1610429286956787
4,995984792709351/1,1648718118667603/2/0,25145673751831055/0,2685075104236603/0,3189927935600281/0,1610429286956787
4,995984792709351/1,1655921936035156/2/0,25145673751831055/0,2685075104236603/0,3189927935600281/0,1610429286956787
4,995984792709351/1,1655921936035156/2/0,25145673751831055/0,2685075104236603/0,3189927935600281/0,1610429286956787
4,995984792709351/1,1612699031829834/2/0,25145673751831055/0,2685075104236603/0,3189927935600281/0,1610429286956787
4,995984792709351/1,1648718118667603/2/0,25145673751831055/0,2685075104236603/0,3189927935600281/0,1610429286956787
4,995984792709351/1,168473720550537/2/0,25145673751831055/0,2685075104236603/0,3189927935600281/0,1610429286956787
4,995984792709351/1,1634310483932495/2/0,25145673751831055/0,2685075104236603/0,3189927935600281/0,1610429286956787
4,995984792709351/1,1691941022872925/2/0,25145673751831055/0,2685075104236603/0,3189927935600281/0,1610429286956787
4,995984792709351/1,1763980388641357/2/0,25145673751831055/0,2685075104236603/0,3189927935600281/0,1610429286956787
4,995984792709351/1,1648718118667603/2/0,25145673751831055/0,2685075104236603/0,3189927935600281/0,1610429286956787
4,995984792709351/1,1670329570770264/2/0,25145673751831055/0,2685075104236603/0,3189927935600281/0,1610429286956787
4,995984792709351/1,1742368936538696/2/0,25145673751831055/0,2685075104236603/0,3189927935600281/0,1610429286956787
4,995984792709351/1,1763980388641357/2/0,25145673751831055/0,2685075104236603/0,3189927935600281/0,1610429286956787
4,995984792709351/1,1619902849197388/2/0,25145673751831055/0,2685075104236603/0,3189927935600281/0,1610429286956787
4,995984792709351/1,166312575340271/2/0,25145673751831055/0,2685075104236603/0,3189927935600281/0,1610429286956787
4,995984792709351/1,1821612119674683/2/0,25145673751831055/0,2685075104236603/0,3189927935600281/0,1610429286956787
4,995984792709351/1,1864835023880005/2/0,25145673751831055/0,2685075104236603/0,3189927935600281/0,1610429286956787
4,995984792709351/1,1591086387634277/2/0,25145673751831055/0,2685075104236603/0,3189927935600281/0,1610429286956787
4,995984792709351/1,1706349849700928/2/0,25145673751831055/0,2685075104236603/0,3189927935600281/0,1610429286956787
4,995984792709351/1,1756776571273804/2/0,25145673751831055/0,2685075104236603/0,3189927935600281/0,1610429286956787
4,995984792709351/1,1619902849197388/2/0,25145673751831055/0,2685075104236603/0,3189927935600281/0,1610429286956787
4,995984792709351/1,1677533388137817/2/0,25145673751831055/0,2685075104236603/0,3189927935600281/0,1610429286956787
4,995984792709351/1,151904821395874/2/0,25145673751831055/0,2685075104236603/0,3189927935600281/0,1610429286956787
4,995984792709351/1,1619902849197388/2/0,25145673751831055/0,2685075104236603/0,3189927935600281/0,1610429286956787
4,995984792709351/1,1699146032333374/2/0,25145673751831055/0,2685075104236603/0,3189927935600281/0,1610429286956787
4,995984792709351/1,1670329570770264/2/0,25145673751831055/0,2685075104236603/0,3189927935600281/0,1610429286956787
4,995984792709351/1,1526252031326294/2/0,25145673751831055/0,2685075104236603/0,3189927935600281/0,1610429286956787
4,995984792709351/1,1699146032333374/2/0,25145673751831055/0,2685075104236603/0,3189927935600281/0,1610429286956787
4,995984792709351/1,1800000667572021/2/0,25145673751831055/0,2685075104236603/0,3189927935600281/0,1610429286956787
4,995984792709351/1,1612699031829834/2/0,25145673751831055/0,2685075104236603/0,3189927935600281/0,1610429286956787
4,995984792709351/1,1648718118667603/2/0,25145673751831055/0,2685075104236603/0,3189927935600281/0,1610429286956787
4,995984792709351/1,1720757484436035/2/0,25145673751831055/0,2685075104236603/0,3189927935600281/0,1610429286956787
4,995984792709351/1,1648718118667603/2/0,25145673751831055/0,2685075104236603/0,3189927935600281/0,1610429286956787
4,995984792709351/1,166312575340271/2/0,25145673751831055/0,2685075104236603/0,3189927935600281/0,1610429286956787
4,995984792709351/1,1699146032333374/2/0,25145673751831055/0,2685075104236603/0,3189927935600281/0,1610429286956787
4,995984792709351/1,1612699031829834/2/0,25145673751831055/0,2685075104236603/0,3189927935600281/0,1610429286956787
4,995984792709351/1,1648718118667603/2/0,25145673751831055/0,2685075104236603/0,3189927935600281/0,1610429286956787
4,995984792709351/1,181440830230713/2/0,25145673751831055/0,2685075104236603/0,3189927935600281/0,1610429286956787
4,995984792709351/1,1569474935531616/2/0,25145673751831055/0,2685075104236603/0,3189927935600281/0,1610429286956787
4,995984792709351/1,1475824117660522/2/0,25145673751831055/0,2685075104236603/0,3189927935600281/0,1610429286956787
4,995984792709351/1,1713553667068481/2/0,25145673751831055/0,2685075104236603/0,3189927935600281/0,1610429286956787
4,995984792709351/1,1526252031326294/2/0,25145673751831055/0,2685075104236603/0,3189927935600281/0,1610429286956787
4,995984792709351/1,1454212665557861/2/0,25145673751831055/0,2685075104236603/0,3189927935600281/0,1610429286956787
4,995984792709351/1,1612699031829834/2/0,25145673751831055/0,2685075104236603/0,3189927935600281/0,1610429286956787
4,995984792709351/1,149023175239563/2/0,25145673751831055/0,2685075104236603/0,3189927935600281/0,1610429286956787
4,995984792709351/1,1504640579223633/2/0,25145673751831055/0,2685075104236603/0,3189927935600281/0,1610429286956787
4,995984792709351/1,151904821395874/2/0,25145673751831055/0,2685075104236603/0,3189927935600281/0,1610429286956787
4,995984792709351/1,1547863483428955/2/0,25145673751831055/0,2685075104236603/0,3189927935600281/0,1610429286956787
4,995984792709351/1,1454212665557861/2/0,25145673751831055/0,2685075104236603/0,3189927935600281/0,1610429286956787
4,995984792709351/1,1526252031326294/2/0,25145673751831055/0,2685075104236603/0,3189927935600281/0,1610429286956787
4,995984792709351/1,1706349849700928/2/0,25145673751831055/0,2685075104236603/0,3189927935600281/0,1610429286956787
4,995984792709351/1,1670329570770264/2/0,25145673751831055/0,2685075104236603/0,3189927935600281/0,1610429286956787
4,995984792709351/1,1641514301300049/2/0,25145673751831055/0,2685075104236603/0,3189927935600281/0,1610429286956787
4,995984792709351/1,1792796850204468/2/0,25145673751831055/0,2685075104236603/0,3189927935600281/0,1610429286956787
4,995984792709351/1,1648718118667603/2/0,25145673751831055/0,2685075104236603/0,3189927935600281/0,1610429286956787
4,995984792709351/1,1511844396591187/2/0,25145673751831055/0,2685075104236603/0,3189927935600281/0,1610429286956787
4,995984792709351/1,1699146032333374/2/0,25145673751831055/0,2685075104236603/0,3189927935600281/0,1610429286956787
4,995984792709351/1,1634310483932495/2/0,25145673751831055/0,2685075104236603/0,3189927935600281/0,1610429286956787
4,995984792709351/1,1648718118667603/2/0,25145673751831055/0,2685075104236603/0,3189927935600281/0,1610429286956787
4,995984792709351/1,1641514301300049/2/0,25145673751831055/0,2685075104236603/0,3189927935600281/0,1610429286956787
4,995984792709351/1,1677533388137817/2/0,25145673751831055/0,2685075104236603/0,3189927935600281/0,1610429286956787
4,995984792709351/1,1619902849197388/2/0,25145673751831055/0,2685075104236603/0,3189927935600281/0,1610429286956787
4,995984792709351/1,149023175239563/2/0,25145673751831055/0,2685075104236603/0,3189927935600281/0,1610429286956787
4,995984792709351/1,1562271118164062/2/0,25145673751831055/0,2685075104236603/0,3189927935600281/0,1610429286956787
4,995984792709351/1,1475824117660522/2/0,25145673751831055/0,2685075104236603/0,3189927935600281/0,1610429286956787
4,995984792709351/1,1540659666061401/2/0,25145673751831055/0,2685075104236603/0,3189927935600281/0,1610429286956787
4,995984792709351/1,1569474935531616/2/0,25145673751831055/0,2685075104236603/0,3189927935600281/0,1610429286956787
4,995984792709351/1,14326012134552/2/0,25145673751831055/0,2685075104236603/0,3189927935600281/0,1610429286956787
4,995984792709351/1,1511844396591187/2/0,25145673751831055/0,2685075104236603/0,3189927935600281/0,1610429286956787
4,995984792709351/1,1699146032333374/2/0,25145673751831055/0,2685075104236603/0,3189927935600281/0,1610429286956787
4,995984792709351/1,1655921936035156/2/0,25145673751831055/0,2685075104236603/0,3189927935600281/0,1610429286956787
4,995984792709351/1,1648718118667603/2/0,25145673751831055/0,2685075104236603/0,3189927935600281/0,1610429286956787
4,995984792709351/1,1706349849700928/2/0,25145673751831055/0,2685075104236603/0,3189927935600281/0,1610429286956787
4,995984792709351/1,1677533388137817/2/0,25145673751831055/0,2685075104236603/0,3189927935600281/0,1610429286956787
4,995984792709351/1,1562271118164062/2/0,25145673751831055/0,2685075104236603/0,3189927935600281/0,1610429286956787
4,995984792709351/1,1763980388641357/2/0,25145673751831055/0,2685075104236603/0,3189927935600281/0,1610429286956787
4,995984792709351/1,1706349849700928/2/0,25145673751831055/0,2685075104236603/0,3189927935600281/0,1610429286956787
4,995984792709351/1,1475824117660522/2/0,25145673751831055/0,2685075104236603/0,3189927935600281/0,1610429286956787
4,995984792709351/1,1547863483428955/2/0,25145673751831055/0,2685075104236603/0,3189927935600281/0,1610429286956787
4,995984792709351/1,1619902849197388/2/0,25145673751831055/0,2685075104236603/0,3189927935600281/0,1610429286956787
4,995984792709351/1,1468620300292969/2/0,25145673751831055/0,2685075104236603/0,3189927935600281/0,1610429286956787
4,995984792709351/1,1569474935531616/2/0,25145673751831055/0,2685075104236603/0,3189927935600281/0,1610429286956787
4,995984792709351/1,1735165119171143/2/0,25145673751831055/0,2685075104236603/0,3189927935600281/0,1610429286956787
4,995984792709351/1,1374969482421875/2/0,25145673751831055/0,2685075104236603/0,3189927935600281/0,1610429286956787
4,995984792709351/1,1367765665054321/2/0,25145673751831055/0,2685075104236603/0,3189927935600281/0,1610429286956787
4,995984792709351/1,1547863483428955/2/0,25145673751831055/0,2685075104236603/0,3189927935600281/0,1610429286956787
4,995984792709351/1,1526252031326294/2/0,25145673751831055/0,2685075104236603/0,3189927935600281/0,1610429286956787
4,995984792709351/1,1655921936035156/2/0,25145673751831055/0,2685075104236603/0,3189927935600281/0,1610429286956787
4,995984792709351/1,1857631206512451/2/0,25145673751831055/0,2685075104236603/0,3189927935600281/0,1610429286956787
4,995984792709351/1,1828815937042236/2/0,25145673751831055/0,2685075104236603/0,3189927935600281/0,1610429286956787
4,995984792709351/1,1713553667068481/2/0,25145673751831055/0,2685075104236603/0,3189927935600281/0,1610429286956787
4,995984792709351/1,183601975440979/2/0,25145673751831055/0,2685075104236603/0,3189927935600281/0,1610429286956787
4,995984792709351/1,1850427389144897/2/0,25145673751831055/0,2685075104236603/0,3189927935600281/0,1610429286956787
4,995984792709351/1,1641514301300049/2/0,25145673751831055/0,2685075104236603/0,3189927935600281/0,1610429286956787
4,995984792709351/1,1778388023376465/2/0,25145673751831055/0,2685075104236603/0,3189927935600281/0,1610429286956787
4,995984792709351/1,1778388023376465/2/0,25145673751831055/0,2685075104236603/0,3189927935600281/0,1610429286956787
4,995984792709351/1,1634310483932495/2/0,25145673751831055/0,2685075104236603/0,3189927935600281/0,1610429286956787
4,995984792709351/1,1648718118667603/2/0,25145673751831055/0,2685075104236603/0,3189927935600281/0,1610429286956787
4,995984792709351/1,1641514301300049/2/0,25145673751831055/0,2685075104236603/0,3189927935600281/0,1610429286956787
4,995984792709351/1,166312575340271/2/0,25145673751831055/0,2685075104236603/0,3189927935600281/0,1610429286956787
4,995984792709351/1,160549521446228/2/0,25145673751831055/0,2685075104236603/0,3189927935600281/0,1610429286956787
4,995984792709351/1,1691941022872925/2/0,25145673751831055/0,2685075104236603/0,3189927935600281/0,1610429286956787
4,995984792709351/1,1634310483932495/2/0,25145673751831055/0,2685075104236603/0,3189927935600281/0,1610429286956787
4,995984792709351/1,1677533388137817/2/0,25145673751831055/0,2685075104236603/0,3189927935600281/0,1610429286956787
4,995984792709351/1,1850427389144897/2/0,25145673751831055/0,2685075104236603/0,3189927935600281/0,1610429286956787
4,995984792709351/1,174957275390625/2/0,25145673751831055/0,2685075104236603/0,3189927935600281/0,1610429286956787
4,995984792709351/1,1655921936035156/2/0,25145673751831055/0,2685075104236603/0,3189927935600281/0,1610429286956787
4,995984792709351/1,1720757484436035/2/0,25145673751831055/0,2685075104236603/0,3189927935600281/0,1610429286956787
4,995984792709351/1,1691941022872925/2/0,25145673751831055/0,2685075104236603/0,3189927935600281/0,1610429286956787
4,995984792709351/1,1547863483428955/2/0,25145673751831055/0,2685075104236603/0,3189927935600281/0,1610429286956787
4,995984792709351/1,1655921936035156/2/0,25145673751831055/0,2685075104236603/0,3189927935600281/0,1610429286956787
4,995984792709351/1,1706349849700928/2/0,25145673751831055/0,2685075104236603/0,3189927935600281/0,1610429286956787
4,995984792709351/1,1699146032333374/2/0,25145673751831055/0,2685075104236603/0,3189927935600281/0,1610429286956787
4,995984792709351/1,1641514301300049/2/0,25145673751831055/0,2685075104236603/0,3189927935600281/0,1610429286956787
4,995984792709351/1,1821612119674683/2/0,25145673751831055/0,2685075104236603/0,3189927935600281/0,1610429286956787
4,995984792709351/1,1634310483932495/2/0,25145673751831055/0,2685075104236603/0,3189927935600281/0,1610429286956787
4,995984792709351/1,1461416482925415/2/0,25145673751831055/0,2685075104236603/0,3189927935600281/0,1610429286956787
4,995984792709351/1,157667875289917/2/0,25145673751831055/0,2685075104236603/0,3189927935600281/0,1610429286956787
4,995984792709351/1,168473720550537/2/0,25145673751831055/0,2685075104236603/0,3189927935600281/0,1610429286956787
4,995984792709351/1,1648718118667603/2/0,25145673751831055/0,2685075104236603/0,3189927935600281/0,1610429286956787
4,995984792709351/1,1850427389144897/2/0,25145673751831055/0,2685075104236603/0,3189927935600281/0,1610429286956787
4,995984792709351/1,1850427389144897/2/0,25145673751831055/0,2685075104236603/0,3189927935600281/0,1610429286956787
4,995984792709351/1,181440830230713/2/0,25145673751831055/0,2685075104236603/0,3189927935600281/0,1610429286956787
4,995984792709351/1,1742368936538696/2/0,25145673751831055/0,2685075104236603/0,3189927935600281/0,1610429286956787
4,995984792709351/1,1763980388641357/2/0,25145673751831055/0,2685075104236603/0,3189927935600281/0,1610429286956787
4,995984792709351/1,1648718118667603/2/0,25145673751831055/0,2685075104236603/0,3189927935600281/0,1610429286956787
4,995984792709351/1,1778388023376465/2/0,25145673751831055/0,2685075104236603/0,3189927935600281/0,1610429286956787
4,995984792709351/1,1828815937042236/2/0,25145673751831055/0,2685075104236603/0,3189927935600281/0,1610429286956787
4,995984792709351/1,1821612119674683/2/0,25145673751831055/0,2685075104236603/0,3189927935600281/0,1610429286956787
4,995984792709351/1,1828815937042236/2/0,25145673751831055/0,2685075104236603/0,3189927935600281/0,1610429286956787
4,995984792709351/1,192246675491333/2/0,25145673751831055/0,2685075104236603/0,3189927935600281/0,1610429286956787
4,995984792709351/1,1713553667068481/2/0,25145673751831055/0,2685075104236603/0,3189927935600281/0,1610429286956787
4,995984792709351/1,1627106666564941/2/0,25145673751831055/0,2685075104236603/0,3189927935600281/0,1610429286956787
4,995984792709351/1,1720757484436035/2/0,25145673751831055/0,2685075104236603/0,3189927935600281/0,1610429286956787
4,995984792709351/1,190085530281067/2/0,25145673751831055/0,2685075104236603/0,3189927935600281/0,1610429286956787
4,995984792709351/1,1670329570770264/2/0,25145673751831055/0,2685075104236603/0,3189927935600281/0,1610429286956787
4,995984792709351/1,1742368936538696/2/0,25145673751831055/0,2685075104236603/0,3189927935600281/0,1610429286956787
4,995984792709351/1,1670329570770264/2/0,25145673751831055/0,2685075104236603/0,3189927935600281/0,1610429286956787
4,995984792709351/1,1569474935531616/2/0,25145673751831055/0,2685075104236603/0,3189927935600281/0,1610429286956787
4,995984792709351/1,1670329570770264/2/0,25145673751831055/0,2685075104236603/0,3189927935600281/0,1610429286956787
4,995984792709351/1,1735165119171143/2/0,25145673751831055/0,2685075104236603/0,3189927935600281/0,1610429286956787
4,995984792709351/1,1670329570770264/2/0,25145673751831055/0,2685075104236603/0,3189927935600281/0,1610429286956787
4,995984792709351/1,1720757484436035/2/0,25145673751831055/0,2685075104236603/0,3189927935600281/0,1610429286956787
4,995984792709351/1,181440830230713/2/0,25145673751831055/0,2685075104236603/0,3189927935600281/0,1610429286956787
4,995984792709351/1,1612699031829834/2/0,25145673751831055/0,2685075104236603/0,3189927935600281/0,1610429286956787
4,995984792709351/1,159829020500183/2/0,25145673751831055/0,2685075104236603/0,3189927935600281/0,1610429286956787
4,995984792709351/1,1627106666564941/2/0,25145673751831055/0,2685075104236603/0,3189927935600281/0,1610429286956787
4,995984792709351/1,1583882570266724/2/0,25145673751831055/0,2685075104236603/0,3189927935600281/0,1610429286956787
4,995984792709351/1,1569474935531616/2/0,25145673751831055/0,2685075104236603/0,3189927935600281/0,1610429286956787
4,995984792709351/1,1720757484436035/2/0,25145673751831055/0,2685075104236603/0,3189927935600281/0,1610429286956787
4,995984792709351/1,1461416482925415/2/0,25145673751831055/0,2685075104236603/0,3189927935600281/0,1610429286956787
4,995984792709351/1,1382173299789429/2/0,25145673751831055/0,2685075104236603/0,3189927935600281/0,1610429286956787
4,995984792709351/1,1533455848693848/2/0,25145673751831055/0,2685075104236603/0,3189927935600281/0,1610429286956787
4,995984792709351/1,160549521446228/2/0,25145673751831055/0,2685075104236603/0,3189927935600281/0,1610429286956787
4,995984792709351/1,1439805030822754/2/0,25145673751831055/0,2685075104236603/0,3189927935600281/0,1610429286956787
4,995984792709351/1,1447008848190308/2/0,25145673751831055/0,2685075104236603/0,3189927935600281/0,1610429286956787
4,995984792709351/1,1461416482925415/2/0,25145673751831055/0,2685075104236603/0,3189927935600281/0,1610429286956787
4,995984792709351/1,1382173299789429/2/0,25145673751831055/0,2685075104236603/0,3189927935600281/0,1610429286956787
4,995984792709351/1,1511844396591187/2/0,25145673751831055/0,2685075104236603/0,3189927935600281/0,1610429286956787
4,995984792709351/1,168473720550537/2/0,25145673751831055/0,2685075104236603/0,3189927935600281/0,1610429286956787
4,995984792709351/1,1792796850204468/2/0,25145673751831055/0,2685075104236603/0,3189927935600281/0,1610429286956787
4,995984792709351/1,1828815937042236/2/0,25145673751831055/0,2685075104236603/0,3189927935600281/0,1610429286956787
4,995984792709351/1,1713553667068481/2/0,25145673751831055/0,2685075104236603/0,3189927935600281/0,1610429286956787
4,995984792709351/1,181440830230713/2/0,25145673751831055/0,2685075104236603/0,3189927935600281/0,1610429286956787
4,995984792709351/1,1936874389648438/2/0,25145673751831055/0,2685075104236603/0,3189927935600281/0,1610429286956787
4,995984792709351/1,1785591840744019/2/0,25145673751831055/0,2685075104236603/0,3189927935600281/0,1610429286956787
4,995984792709351/1,1641514301300049/2/0,25145673751831055/0,2685075104236603/0,3189927935600281/0,1610429286956787
4,995984792709351/1,1735165119171143/2/0,25145673751831055/0,2685075104236603/0,3189927935600281/0,1610429286956787
4,995984792709351/1,1720757484436035/2/0,25145673751831055/0,2685075104236603/0,3189927935600281/0,1610429286956787
4,995984792709351/1,1634310483932495/2/0,25145673751831055/0,2685075104236603/0,3189927935600281/0,1610429286956787
4,995984792709351/1,1735165119171143/2/0,25145673751831055/0,2685075104236603/0,3189927935600281/0,1610429286956787
4,995984792709351/1,1727961301803589/2/0,25145673751831055/0,2685075104236603/0,3189927935600281/0,1610429286956787
4,995984792709351/1,160549521446228/2/0,25145673751831055/0,2685075104236603/0,3189927935600281/0,1610429286956787
4,995984792709351/1,1641514301300049/2/0,25145673751831055/0,2685075104236603/0,3189927935600281/0,1610429286956787
4,995984792709351/1,1800000667572021/2/0,25145673751831055/0,2685075104236603/0,3189927935600281/0,1610429286956787
4,995984792709351/1,1648718118667603/2/0,25145673751831055/0,2685075104236603/0,3189927935600281/0,1610429286956787
4,995984792709351/1,1583882570266724/2/0,25145673751831055/0,2685075104236603/0,3189927935600281/0,1610429286956787
4,995984792709351/1,1648718118667603/2/0,25145673751831055/0,2685075104236603/0,3189927935600281/0,1610429286956787
4,995984792709351/1,1627106666564941/2/0,25145673751831055/0,2685075104236603/0,3189927935600281/0,1610429286956787
4,995984792709351/1,157667875289917/2/0,25145673751831055/0,2685075104236603/0,3189927935600281/0,1610429286956787
4,995984792709351/1,1843223571777344/2/0,25145673751831055/0,2685075104236603/0,3189927935600281/0,1610429286956787
4,995984792709351/1,1735165119171143/2/0,25145673751831055/0,2685075104236603/0,3189927935600281/0,1610429286956787
4,995984792709351/1,166312575340271/2/0,25145673751831055/0,2685075104236603/0,3189927935600281/0,1610429286956787
4,995984792709351/1,168473720550537/2/0,25145673751831055/0,2685075104236603/0,3189927935600281/0,1610429286956787
4,995984792709351/1,1713553667068481/2/0,25145673751831055/0,2685075104236603/0,3189927935600281/0,1610429286956787
4,995984792709351/1,1569474935531616/2/0,25145673751831055/0,2685075104236603/0,3189927935600281/0,1610429286956787
4,995984792709351/1,1670329570770264/2/0,25145673751831055/0,2685075104236603/0,3189927935600281/0,1610429286956787
4,995984792709351/1,157667875289917/2/0,25145673751831055/0,2685075104236603/0,3189927935600281/0,1610429286956787
4,995984792709351/1,1533455848693848/2/0,25145673751831055/0,2685075104236603/0,3189927935600281/0,1610429286956787
4,995984792709351/1,1555067300796509/2/0,25145673751831055/0,2685075104236603/0,3189927935600281/0,1610429286956787
4,995984792709351/1,1742368936538696/2/0,25145673751831055/0,2685075104236603/0,3189927935600281/0,1610429286956787
4,995984792709351/1,1619902849197388/2/0,25145673751831055/0,2685075104236603/0,3189927935600281/0,1610429286956787
4,995984792709351/1,1699146032333374/2/0,25145673751831055/0,2685075104236603/0,3189927935600281/0,1610429286956787
4,995984792709351/1,1756776571273804/2/0,25145673751831055/0,2685075104236603/0,3189927935600281/0,1610429286956787
4,995984792709351/1,1670329570770264/2/0,25145673751831055/0,2685075104236603/0,3189927935600281/0,1610429286956787
4,995984792709351/1,1612699031829834/2/0,25145673751831055/0,2685075104236603/0,3189927935600281/0,1610429286956787
4,995984792709351/1,1699146032333374/2/0,25145673751831055/0,2685075104236603/0,3189927935600281/0,1610429286956787
4,995984792709351/1,1800000667572021/2/0,25145673751831055/0,2685075104236603/0,3189927935600281/0,1610429286956787
4,995984792709351/1,1706349849700928/2/0,25145673751831055/0,2685075104236603/0,3189927935600281/0,1610429286956787
4,995984792709351/1,181440830230713/2/0,25145673751831055/0,2685075104236603/0,3189927935600281/0,1610429286956787
4,995984792709351/1,2044932842254639/2/0,25145673751831055/0,2685075104236603/0,3189927935600281/0,1610429286956787
4,995984792709351/1,1843223571777344/2/0,25145673751831055/0,2685075104236603/0,3189927935600281/0,1610429286956787
4,995984792709351/1,1800000667572021/2/0,25145673751831055/0,2685075104236603/0,3189927935600281/0,1610429286956787
4,995984792709351/1,1886446475982666/2/0,25145673751831055/0,2685075104236603/0,3189927935600281/0,1610429286956787
4,995984792709351/1,1857631206512451/2/0,25145673751831055/0,2685075104236603/0,3189927935600281/0,1610429286956787
4,995984792709351/1,1807204484939575/2/0,25145673751831055/0,2685075104236603/0,3189927935600281/0,1610429286956787
4,995984792709351/1,181440830230713/2/0,25145673751831055/0,2685075104236603/0,3189927935600281/0,1610429286956787
4,995984792709351/1,1720757484436035/2/0,25145673751831055/0,2685075104236603/0,3189927935600281/0,1610429286956787
4,995984792709351/1,1792796850204468/2/0,25145673751831055/0,2685075104236603/0,3189927935600281/0,1610429286956787
4,995984792709351/1,198730230331421/2/0,25145673751831055/0,2685075104236603/0,3189927935600281/0,1610429286956787
4,995984792709351/1,190085530281067/2/0,25145673751831055/0,2685075104236603/0,3189927935600281/0,1610429286956787
4,995984792709351/1,1641514301300049/2/0,25145673751831055/0,2685075104236603/0,3189927935600281/0,1610429286956787
4,995984792709351/1,166312575340271/2/0,25145673751831055/0,2685075104236603/0,3189927935600281/0,1610429286956787
4,995984792709351/1,1691941022872925/2/0,25145673751831055/0,2685075104236603/0,3189927935600281/0,1610429286956787
4,995984792709351/1,1641514301300049/2/0,25145673751831055/0,2685075104236603/0,3189927935600281/0,1610429286956787
4,995984792709351/1,1691941022872925/2/0,25145673751831055/0,2685075104236603/0,3189927935600281/0,1610429286956787
4,995984792709351/1,159829020500183/2/0,25145673751831055/0,2685075104236603/0,3189927935600281/0,1610429286956787
4,995984792709351/1,1562271118164062/2/0,25145673751831055/0,2685075104236603/0,3189927935600281/0,1610429286956787
4,995984792709351/1,1670329570770264/2/0,25145673751831055/0,2685075104236603/0,3189927935600281/0,1610429286956787
4,995984792709351/1,1706349849700928/2/0,25145673751831055/0,2685075104236603/0,3189927935600281/0,1610429286956787
4,995984792709351/1,1612699031829834/2/0,25145673751831055/0,2685075104236603/0,3189927935600281/0,1610429286956787
4,995984792709351/1,1504640579223633/2/0,25145673751831055/0,2685075104236603/0,3189927935600281/0,1610429286956787
4,995984792709351/1,1706349849700928/2/0,25145673751831055/0,2685075104236603/0,3189927935600281/0,1610429286956787
4,995984792709351/1,1677533388137817/2/0,25145673751831055/0,2685075104236603/0,3189927935600281/0,1610429286956787
4,995984792709351/1,1583882570266724/2/0,25145673751831055/0,2685075104236603/0,3189927935600281/0,1610429286956787
4,995984792709351/1,1612699031829834/2/0,25145673751831055/0,2685075104236603/0,3189927935600281/0,1610429286956787
4,995984792709351/1,1540659666061401/2/0,25145673751831055/0,2685075104236603/0,3189927935600281/0,1610429286956787
4,995984792709351/1,1475824117660522/2/0,25145673751831055/0,2685075104236603/0,3189927935600281/0,1610429286956787
4,995984792709351/1,1619902849197388/2/0,25145673751831055/0,2685075104236603/0,3189927935600281/0,1610429286956787
4,995984792709351/1,1727961301803589/2/0,25145673751831055/0,2685075104236603/0,3189927935600281/0,1610429286956787
4,995984792709351/1,1691941022872925/2/0,25145673751831055/0,2685075104236603/0,3189927935600281/0,1610429286956787
4,995984792709351/1,1756776571273804/2/0,25145673751831055/0,2685075104236603/0,3189927935600281/0,1610429286956787
4,995984792709351/1,1720757484436035/2/0,25145673751831055/0,2685075104236603/0,3189927935600281/0,1610429286956787
4,995984792709351/1,157667875289917/2/0,25145673751831055/0,2685075104236603/0,3189927935600281/0,1610429286956787
4,995984792709351/1,1569474935531616/2/0,25145673751831055/0,2685075104236603/0,3189927935600281/0,1610429286956787
4,995984792709351/1,1591086387634277/2/0,25145673751831055/0,2685075104236603/0,3189927935600281/0,1610429286956787
4,995984792709351/1,1555067300796509/2/0,25145673751831055/0,2685075104236603/0,3189927935600281/0,1610429286956787
4,995984792709351/1,1483027935028076/2/0,25145673751831055/0,2685075104236603/0,3189927935600281/0,1610429286956787
4,995984792709351/1,1583882570266724/2/0,25145673751831055/0,2685075104236603/0,3189927935600281/0,1610429286956787
4,995984792709351/1,1569474935531616/2/0,25145673751831055/0,2685075104236603/0,3189927935600281/0,1610429286956787
4,995984792709351/1,1619902849197388/2/0,25145673751831055/0,2685075104236603/0,3189927935600281/0,1610429286956787
4,995984792709351/1,1763980388641357/2/0,25145673751831055/0,2685075104236603/0,3189927935600281/0,1610429286956787
4,995984792709351/1,1533455848693848/2/0,25145673751831055/0,2685075104236603/0,3189927935600281/0,1610429286956787
4,995984792709351/1,1533455848693848/2/0,25145673751831055/0,2685075104236603/0,3189927935600281/0,1610429286956787
4,995984792709351/1,1641514301300049/2/0,25145673751831055/0,2685075104236603/0,3189927935600281/0,1610429286956787
4,995984792709351/1,1648718118667603/2/0,25145673751831055/0,2685075104236603/0,3189927935600281/0,1610429286956787
4,995984792709351/1,1511844396591187/2/0,25145673751831055/0,2685075104236603/0,3189927935600281/0,1610429286956787
4,995984792709351/1,1655921936035156/2/0,25145673751831055/0,2685075104236603/0,3189927935600281/0,1610429286956787
4,995984792709351/1,1727961301803589/2/0,25145673751831055/0,2685075104236603/0,3189927935600281/0,1610429286956787
4,995984792709351/1,1706349849700928/2/0,25145673751831055/0,2685075104236603/0,3189927935600281/0,1610429286956787
4,995984792709351/1,1555067300796509/2/0,25145673751831055/0,2685075104236603/0,3189927935600281/0,1610429286956787
4,995984792709351/1,166312575340271/2/0,25145673751831055/0,2685075104236603/0,3189927935600281/0,1610429286956787
4,995984792709351/1,1706349849700928/2/0,25145673751831055/0,2685075104236603/0,3189927935600281/0,1610429286956787
4,995984792709351/1,1648718118667603/2/0,25145673751831055/0,2685075104236603/0,3189927935600281/0,1610429286956787
4,995984792709351/1,1648718118667603/2/0,25145673751831055/0,2685075104236603/0,3189927935600281/0,1610429286956787
4,995984792709351/1,1634310483932495/2/0,25145673751831055/0,2685075104236603/0,3189927935600281/0,1610429286956787
4,995984792709351/1,1591086387634277/2/0,25145673751831055/0,2685075104236603/0,3189927935600281/0,1610429286956787
4,995984792709351/1,1763980388641357/2/0,25145673751831055/0,2685075104236603/0,3189927935600281/0,1610429286956787
4,995984792709351/1,1720757484436035/2/0,25145673751831055/0,2685075104236603/0,3189927935600281/0,1610429286956787
4,995984792709351/1,1562271118164062/2/0,25145673751831055/0,2685075104236603/0,3189927935600281/0,1610429286956787
4,995984792709351/1,1691941022872925/2/0,25145673751831055/0,2685075104236603/0,3189927935600281/0,1610429286956787
4,995984792709351/1,1641514301300049/2/0,25145673751831055/0,2685075104236603/0,3189927935600281/0,1610429286956787
4,995984792709351/1,1569474935531616/2/0,25145673751831055/0,2685075104236603/0,3189927935600281/0,1610429286956787
4,995984792709351/1,166312575340271/2/0,25145673751831055/0,2685075104236603/0,3189927935600281/0,1610429286956787
4,995984792709351/1,1778388023376465/2/0,25145673751831055/0,2685075104236603/0,3189927935600281/0,1610429286956787
4,995984792709351/1,1727961301803589/2/0,25145673751831055/0,2685075104236603/0,3189927935600281/0,1610429286956787
4,995984792709351/1,1720757484436035/2/0,25145673751831055/0,2685075104236603/0,3189927935600281/0,1610429286956787
4,995984792709351/1,1591086387634277/2/0,25145673751831055/0,2685075104236603/0,3189927935600281/0,1610429286956787
4,995984792709351/1,1670329570770264/2/0,25145673751831055/0,2685075104236603/0,3189927935600281/0,1610429286956787
4,995984792709351/1,1627106666564941/2/0,25145673751831055/0,2685075104236603/0,3189927935600281/0,1610429286956787
4,995984792709351/1,159829020500183/2/0,25145673751831055/0,2685075104236603/0,3189927935600281/0,1610429286956787
4,995984792709351/1,1677533388137817/2/0,25145673751831055/0,2685075104236603/0,3189927935600281/0,1610429286956787
4,995984792709351/1,1634310483932495/2/0,25145673751831055/0,2685075104236603/0,3189927935600281/0,1610429286956787
4,995984792709351/1,1756776571273804/2/0,25145673751831055/0,2685075104236603/0,3189927935600281/0,1610429286956787
4,995984792709351/1,1627106666564941/2/0,25145673751831055/0,2685075104236603/0,3189927935600281/0,1610429286956787
4,995984792709351/1,1511844396591187/2/0,25145673751831055/0,2685075104236603/0,3189927935600281/0,1610429286956787
4,995984792709351/1,1526252031326294/2/0,25145673751831055/0,2685075104236603/0,3189927935600281/0,1610429286956787
4,995984792709351/1,1504640579223633/2/0,25145673751831055/0,2685075104236603/0,3189927935600281/0,1610429286956787
4,995984792709351/1,1526252031326294/2/0,25145673751831055/0,2685075104236603/0,3189927935600281/0,1610429286956787
4,995984792709351/1,1742368936538696/2/0,25145673751831055/0,2685075104236603/0,3189927935600281/0,1610429286956787
4,995984792709351/1,1677533388137817/2/0,25145673751831055/0,2685075104236603/0,3189927935600281/0,1610429286956787
4,995984792709351/1,157667875289917/2/0,25145673751831055/0,2685075104236603/0,3189927935600281/0,1610429286956787
4,995984792709351/1,1691941022872925/2/0,25145673751831055/0,2685075104236603/0,3189927935600281/0,1610429286956787
4,995984792709351/1,1800000667572021/2/0,25145673751831055/0,2685075104236603/0,3189927935600281/0,1610429286956787
4,995984792709351/1,1670329570770264/2/0,25145673751831055/0,2685075104236603/0,3189927935600281/0,1610429286956787
4,995984792709351/1,1547863483428955/2/0,25145673751831055/0,2685075104236603/0,3189927935600281/0,1610429286956787
4,995984792709351/1,168473720550537/2/0,25145673751831055/0,2685075104236603/0,3189927935600281/0,1610429286956787
4,995984792709351/1,1648718118667603/2/0,25145673751831055/0,2685075104236603/0,3189927935600281/0,1610429286956787
4,995984792709351/1,1583882570266724/2/0,25145673751831055/0,2685075104236603/0,3189927935600281/0,1610429286956787
4,995984792709351/1,1800000667572021/2/0,25145673751831055/0,2685075104236603/0,3189927935600281/0,1610429286956787
4,995984792709351/1,1771184206008911/2/0,25145673751831055/0,2685075104236603/0,3189927935600281/0,1610429286956787
4,995984792709351/1,168473720550537/2/0,25145673751831055/0,2685075104236603/0,3189927935600281/0,1610429286956787
4,995984792709351/1,1800000667572021/2/0,25145673751831055/0,2685075104236603/0,3189927935600281/0,1610429286956787
4,995984792709351/1,1771184206008911/2/0,25145673751831055/0,2685075104236603/0,3189927935600281/0,1610429286956787
4,995984792709351/1,1641514301300049/2/0,25145673751831055/0,2685075104236603/0,3189927935600281/0,1610429286956787
4,995984792709351/1,159829020500183/2/0,25145673751831055/0,2685075104236603/0,3189927935600281/0,1610429286956787
4,995984792709351/1,1691941022872925/2/0,25145673751831055/0,2685075104236603/0,3189927935600281/0,1610429286956787
4,995984792709351/1,1735165119171143/2/0,25145673751831055/0,2685075104236603/0,3189927935600281/0,1610429286956787
4,995984792709351/1,1619902849197388/2/0,25145673751831055/0,2685075104236603/0,3189927935600281/0,1610429286956787
4,995984792709351/1,1800000667572021/2/0,25145673751831055/0,2685075104236603/0,3189927935600281/0,1610429286956787
4,995984792709351/1,1655921936035156/2/0,25145673751831055/0,2685075104236603/0,3189927935600281/0,1610429286956787
4,995984792709351/1,1735165119171143/2/0,25145673751831055/0,2685075104236603/0,3189927935600281/0,1610429286956787
4,995984792709351/1,1720757484436035/2/0,25145673751831055/0,2685075104236603/0,3189927935600281/0,1610429286956787
4,995984792709351/1,1670329570770264/2/0,25145673751831055/0,2685075104236603/0,3189927935600281/0,1610429286956787
4,995984792709351/1,159829020500183/2/0,25145673751831055/0,2685075104236603/0,3189927935600281/0,1610429286956787
4,995984792709351/1,1720757484436035/2/0,25145673751831055/0,2685075104236603/0,3189927935600281/0,1610429286956787
4,995984792709351/1,1591086387634277/2/0,25145673751831055/0,2685075104236603/0,3189927935600281/0,1610429286956787
4,995984792709351/1,1569474935531616/2/0,25145673751831055/0,2685075104236603/0,3189927935600281/0,1610429286956787
4,995984792709351/1,1583882570266724/2/0,25145673751831055/0,2685075104236603/0,3189927935600281/0,1610429286956787
4,995984792709351/1,1641514301300049/2/0,25145673751831055/0,2685075104236603/0,3189927935600281/0,1610429286956787
4,995984792709351/1,1547863483428955/2/0,25145673751831055/0,2685075104236603/0,3189927935600281/0,1610429286956787
4,995984792709351/1,1511844396591187/2/0,25145673751831055/0,2685075104236603/0,3189927935600281/0,1610429286956787
4,995984792709351/1,159829020500183/2/0,25145673751831055/0,2685075104236603/0,3189927935600281/0,1610429286956787
4,995984792709351/1,1547863483428955/2/0,25145673751831055/0,2685075104236603/0,3189927935600281/0,1610429286956787
4,995984792709351/1,1619902849197388/2/0,25145673751831055/0,2685075104236603/0,3189927935600281/0,1610429286956787
4,995984792709351/1,1655921936035156/2/0,25145673751831055/0,2685075104236603/0,3189927935600281/0,1610429286956787
4,995984792709351/1,157667875289917/2/0,25145673751831055/0,2685075104236603/0,3189927935600281/0,1610429286956787
4,995984792709351/1,1533455848693848/2/0,25145673751831055/0,2685075104236603/0,3189927935600281/0,1610429286956787
4,995984792709351/1,1555067300796509/2/0,25145673751831055/0,2685075104236603/0,3189927935600281/0,1610429286956787
4,995984792709351/1,159829020500183/2/0,25145673751831055/0,2685075104236603/0,3189927935600281/0,1610429286956787
4,995984792709351/1,1461416482925415/2/0,25145673751831055/0,2685075104236603/0,3189927935600281/0,1610429286956787
4,995984792709351/1,1562271118164062/2/0,25145673751831055/0,2685075104236603/0,3189927935600281/0,1610429286956787
4,995984792709351/1,1511844396591187/2/0,25145673751831055/0,2685075104236603/0,3189927935600281/0,1610429286956787
4,995984792709351/1,14326012134552/2/0,25145673751831055/0,2685075104236603/0,3189927935600281/0,1610429286956787
4,995984792709351/1,157667875289917/2/0,25145673751831055/0,2685075104236603/0,3189927935600281/0,1610429286956787
4,995984792709351/1,166312575340271/2/0,25145673751831055/0,2685075104236603/0,3189927935600281/0,1610429286956787
4,995984792709351/1,1569474935531616/2/0,25145673751831055/0,2685075104236603/0,3189927935600281/0,1610429286956787
4,995984792709351/1,166312575340271/2/0,25145673751831055/0,2685075104236603/0,3189927935600281/0,1610429286956787
4,995984792709351/1,1627106666564941/2/0,25145673751831055/0,2685075104236603/0,3189927935600281/0,1610429286956787
4,995984792709351/1,1612699031829834/2/0,25145673751831055/0,2685075104236603/0,3189927935600281/0,1610429286956787
4,995984792709351/1,1627106666564941/2/0,25145673751831055/0,2685075104236603/0,3189927935600281/0,1610429286956787
4,995984792709351/1,1727961301803589/2/0,25145673751831055/0,2685075104236603/0,3189927935600281/0,1610429286956787
4,995984792709351/1,157667875289917/2/0,25145673751831055/0,2685075104236603/0,3189927935600281/0,1610429286956787
4,995984792709351/1,1641514301300049/2/0,25145673751831055/0,2685075104236603/0,3189927935600281/0,1610429286956787
4,995984792709351/1,1800000667572021/2/0,25145673751831055/0,2685075104236603/0,3189927935600281/0,1610429286956787
4,995984792709351/1,1763980388641357/2/0,25145673751831055/0,2685075104236603/0,3189927935600281/0,1610429286956787
4,995984792709351/1,160549521446228/2/0,25145673751831055/0,2685075104236603/0,3189927935600281/0,1610429286956787
4,995984792709351/1,1785591840744019/2/0,25145673751831055/0,2685075104236603/0,3189927935600281/0,1610429286956787
4,995984792709351/1,1641514301300049/2/0,25145673751831055/0,2685075104236603/0,3189927935600281/0,1610429286956787
4,995984792709351/1,1634310483932495/2/0,25145673751831055/0,2685075104236603/0,3189927935600281/0,1610429286956787
4,995984792709351/1,192246675491333/2/0,25145673751831055/0,2685075104236603/0,3189927935600281/0,1610429286956787
4,995984792709351/1,183601975440979/2/0,25145673751831055/0,2685075104236603/0,3189927935600281/0,1610429286956787
4,995984792709351/1,1648718118667603/2/0,25145673751831055/0,2685075104236603/0,3189927935600281/0,1610429286956787
4,995984792709351/1,1763980388641357/2/0,25145673751831055/0,2685075104236603/0,3189927935600281/0,1610429286956787
4,995984792709351/1,1821612119674683/2/0,25145673751831055/0,2685075104236603/0,3189927935600281/0,1610429286956787
4,995984792709351/1,166312575340271/2/0,25145673751831055/0,2685075104236603/0,3189927935600281/0,1610429286956787
4,995984792709351/1,174957275390625/2/0,25145673751831055/0,2685075104236603/0,3189927935600281/0,1610429286956787
4,995984792709351/1,1756776571273804/2/0,25145673751831055/0,2685075104236603/0,3189927935600281/0,1610429286956787
4,995984792709351/1,1641514301300049/2/0,25145673751831055/0,2685075104236603/0,3189927935600281/0,1610429286956787
4,995984792709351/1,1627106666564941/2/0,25145673751831055/0,2685075104236603/0,3189927935600281/0,1610429286956787
4,995984792709351/1,1800000667572021/2/0,25145673751831055/0,2685075104236603/0,3189927935600281/0,1610429286956787
4,995984792709351/1,174957275390625/2/0,25145673751831055/0,2685075104236603/0,3189927935600281/0,1610429286956787
4,995984792709351/1,1655921936035156/2/0,25145673751831055/0,2685075104236603/0,3189927935600281/0,1610429286956787
4,995984792709351/1,1735165119171143/2/0,25145673751831055/0,2685075104236603/0,3189927935600281/0,1610429286956787
4,995984792709351/1,1670329570770264/2/0,25145673751831055/0,2685075104236603/0,3189927935600281/0,1610429286956787
4,995984792709351/1,1627106666564941/2/0,25145673751831055/0,2685075104236603/0,3189927935600281/0,1610429286956787
4,995984792709351/1,168473720550537/2/0,25145673751831055/0,2685075104236603/0,3189927935600281/0,1610429286956787
4,995984792709351/1,1439805030822754/2/0,25145673751831055/0,2685075104236603/0,3189927935600281/0,1610429286956787
4,995984792709351/1,1555067300796509/2/0,25145673751831055/0,2685075104236603/0,3189927935600281/0,1610429286956787
4,995984792709351/1,1540659666061401/2/0,25145673751831055/0,2685075104236603/0,3189927935600281/0,1610429286956787
4,995984792709351/1,1771184206008911/2/0,25145673751831055/0,2685075104236603/0,3189927935600281/0,1610429286956787
4,995984792709351/1,1634310483932495/2/0,25145673751831055/0,2685075104236603/0,3189927935600281/0,1610429286956787
4,995984792709351/1,1511844396591187/2/0,25145673751831055/0,2685075104236603/0,3189927935600281/0,1610429286956787
4,995984792709351/1,1497435569763184/2/0,25145673751831055/0,2685075104236603/0,3189927935600281/0,1610429286956787
4,995984792709351/1,1425397396087646/2/0,25145673751831055/0,2685075104236603/0,3189927935600281/0,1610429286956787
4,995984792709351/1,1367765665054321/2/0,25145673751831055/0,2685075104236603/0,3189927935600281/0,1610429286956787
4,995984792709351/1,1497435569763184/2/0,25145673751831055/0,2685075104236603/0,3189927935600281/0,1610429286956787
4,995984792709351/1,1562271118164062/2/0,25145673751831055/0,2685075104236603/0,3189927935600281/0,1610429286956787
4,995984792709351/1,1439805030822754/2/0,25145673751831055/0,2685075104236603/0,3189927935600281/0,1610429286956787
4,995984792709351/1,1511844396591187/2/0,25145673751831055/0,2685075104236603/0,3189927935600281/0,1610429286956787
4,995984792709351/1,1619902849197388/2/0,25145673751831055/0,2685075104236603/0,3189927935600281/0,1610429286956787
4,995984792709351/1,1511844396591187/2/0,25145673751831055/0,2685075104236603/0,3189927935600281/0,1610429286956787
4,995984792709351/1,1475824117660522/2/0,25145673751831055/0,2685075104236603/0,3189927935600281/0,1610429286956787
4,995984792709351/1,1691941022872925/2/0,25145673751831055/0,2685075104236603/0,3189927935600281/0,1610429286956787
4,995984792709351/1,1627106666564941/2/0,25145673751831055/0,2685075104236603/0,3189927935600281/0,1610429286956787
4,995984792709351/1,1612699031829834/2/0,25145673751831055/0,2685075104236603/0,3189927935600281/0,1610429286956787
4,995984792709351/1,166312575340271/2/0,25145673751831055/0,2685075104236603/0,3189927935600281/0,1610429286956787
4,995984792709351/1,1735165119171143/2/0,25145673751831055/0,2685075104236603/0,3189927935600281/0,1610429286956787
4,995984792709351/1,1562271118164062/2/0,25145673751831055/0,2685075104236603/0,3189927935600281/0,1610429286956787
4,995984792709351/1,1742368936538696/2/0,25145673751831055/0,2685075104236603/0,3189927935600281/0,1610429286956787
4,995984792709351/1,1763980388641357/2/0,25145673751831055/0,2685075104236603/0,3189927935600281/0,1610429286956787
4,995984792709351/1,1677533388137817/2/0,25145673751831055/0,2685075104236603/0,3189927935600281/0,1610429286956787
4,995984792709351/1,168473720550537/2/0,25145673751831055/0,2685075104236603/0,3189927935600281/0,1610429286956787
4,995984792709351/1,1763980388641357/2/0,25145673751831055/0,2685075104236603/0,3189927935600281/0,1610429286956787
4,995984792709351/1,1720757484436035/2/0,25145673751831055/0,2685075104236603/0,3189927935600281/0,1610429286956787
4,995984792709351/1,1727961301803589/2/0,25145673751831055/0,2685075104236603/0,3189927935600281/0,1610429286956787
4,995984792709351/1,1691941022872925/2/0,25145673751831055/0,2685075104236603/0,3189927935600281/0,1610429286956787
4,995984792709351/1,166312575340271/2/0,25145673751831055/0,2685075104236603/0,3189927935600281/0,1610429286956787
4,995984792709351/1,1713553667068481/2/0,25145673751831055/0,2685075104236603/0,3189927935600281/0,1610429286956787
4,995984792709351/1,183601975440979/2/0,25145673751831055/0,2685075104236603/0,3189927935600281/0,1610429286956787
4,995984792709351/1,1706349849700928/2/0,25145673751831055/0,2685075104236603/0,3189927935600281/0,1610429286956787
4,995984792709351/1,1756776571273804/2/0,25145673751831055/0,2685075104236603/0,3189927935600281/0,1610429286956787
4,995984792709351/1,1785591840744019/2/0,25145673751831055/0,2685075104236603/0,3189927935600281/0,1610429286956787
4,995984792709351/1,1699146032333374/2/0,25145673751831055/0,2685075104236603/0,3189927935600281/0,1610429286956787
4,995984792709351/1,1691941022872925/2/0,25145673751831055/0,2685075104236603/0,3189927935600281/0,1610429286956787
4,995984792709351/1,1735165119171143/2/0,25145673751831055/0,2685075104236603/0,3189927935600281/0,1610429286956787
4,995984792709351/1,1648718118667603/2/0,25145673751831055/0,2685075104236603/0,3189927935600281/0,1610429286956787
4,995984792709351/1,1547863483428955/2/0,25145673751831055/0,2685075104236603/0,3189927935600281/0,1610429286956787
4,995984792709351/1,1627106666564941/2/0,25145673751831055/0,2685075104236603/0,3189927935600281/0,1610429286956787
4,995984792709351/1,1634310483932495/2/0,25145673751831055/0,2685075104236603/0,3189927935600281/0,1610429286956787
4,995984792709351/1,1619902849197388/2/0,25145673751831055/0,2685075104236603/0,3189927935600281/0,1610429286956787
4,995984792709351/1,1699146032333374/2/0,25145673751831055/0,2685075104236603/0,3189927935600281/0,1610429286956787
4,995984792709351/1,1699146032333374/2/0,25145673751831055/0,2685075104236603/0,3189927935600281/0,1610429286956787
4,995984792709351/1,1526252031326294/2/0,25145673751831055/0,2685075104236603/0,3189927935600281/0,1610429286956787
4,995984792709351/1,1547863483428955/2/0,25145673751831055/0,2685075104236603/0,3189927935600281/0,1610429286956787
4,995984792709351/1,168473720550537/2/0,25145673751831055/0,2685075104236603/0,3189927935600281/0,1610429286956787
4,995984792709351/1,1670329570770264/2/0,25145673751831055/0,2685075104236603/0,3189927935600281/0,1610429286956787
4,995984792709351/1,1627106666564941/2/0,25145673751831055/0,2685075104236603/0,3189927935600281/0,1610429286956787
4,995984792709351/1,1713553667068481/2/0,25145673751831055/0,2685075104236603/0,3189927935600281/0,1610429286956787
4,995984792709351/1,160549521446228/2/0,25145673751831055/0,2685075104236603/0,3189927935600281/0,1610429286956787
4,995984792709351/1,149023175239563/2/0,25145673751831055/0,2685075104236603/0,3189927935600281/0,1610429286956787
4,995984792709351/1,1648718118667603/2/0,25145673751831055/0,2685075104236603/0,3189927935600281/0,1610429286956787
4,995984792709351/1,1742368936538696/2/0,25145673751831055/0,2685075104236603/0,3189927935600281/0,1610429286956787
4,995984792709351/1,159829020500183/2/0,25145673751831055/0,2685075104236603/0,3189927935600281/0,1610429286956787
4,995984792709351/1,1713553667068481/2/0,25145673751831055/0,2685075104236603/0,3189927935600281/0,1610429286956787
4,995984792709351/1,1763980388641357/2/0,25145673751831055/0,2685075104236603/0,3189927935600281/0,1610429286956787
4,995984792709351/1,1569474935531616/2/0,25145673751831055/0,2685075104236603/0,3189927935600281/0,1610429286956787
4,995984792709351/1,1583882570266724/2/0,25145673751831055/0,2685075104236603/0,3189927935600281/0,1610429286956787
4,995984792709351/1,1425397396087646/2/0,25145673751831055/0,2685075104236603/0,3189927935600281/0,1610429286956787
4,995984792709351/1,1454212665557861/2/0,25145673751831055/0,2685075104236603/0,3189927935600281/0,1610429286956787
4,995984792709351/1,1483027935028076/2/0,25145673751831055/0,2685075104236603/0,3189927935600281/0,1610429286956787
4,995984792709351/1,1612699031829834/2/0,25145673751831055/0,2685075104236603/0,3189927935600281/0,1610429286956787
4,995984792709351/1,1591086387634277/2/0,25145673751831055/0,2685075104236603/0,3189927935600281/0,1610429286956787
4,995984792709351/1,1447008848190308/2/0,25145673751831055/0,2685075104236603/0,3189927935600281/0,1610429286956787
4,995984792709351/1,1569474935531616/2/0,25145673751831055/0,2685075104236603/0,3189927935600281/0,1610429286956787
4,995984792709351/1,1418193578720093/2/0,25145673751831055/0,2685075104236603/0,3189927935600281/0,1610429286956787
4,995984792709351/1,1483027935028076/2/0,25145673751831055/0,2685075104236603/0,3189927935600281/0,1610429286956787
4,995984792709351/1,1540659666061401/2/0,25145673751831055/0,2685075104236603/0,3189927935600281/0,1610429286956787
4,995984792709351/1,1447008848190308/2/0,25145673751831055/0,2685075104236603/0,3189927935600281/0,1610429286956787
4,995984792709351/1,1389377117156982/2/0,25145673751831055/0,2685075104236603/0,3189927935600281/0,1610429286956787
4,995984792709351/1,1483027935028076/2/0,25145673751831055/0,2685075104236603/0,3189927935600281/0,1610429286956787
4,995984792709351/1,1591086387634277/2/0,25145673751831055/0,2685075104236603/0,3189927935600281/0,1610429286956787
4,995984792709351/1,1475824117660522/2/0,25145673751831055/0,2685075104236603/0,3189927935600281/0,1610429286956787
4,995984792709351/1,1374969482421875/2/0,25145673751831055/0,2685075104236603/0,3189927935600281/0,1610429286956787
4,995984792709351/1,1540659666061401/2/0,25145673751831055/0,2685075104236603/0,3189927935600281/0,1610429286956787
4,995984792709351/1,1612699031829834/2/0,25145673751831055/0,2685075104236603/0,3189927935600281/0,1610429286956787
4,995984792709351/1,1475824117660522/2/0,25145673751831055/0,2685075104236603/0,3189927935600281/0,1610429286956787
4,995984792709351/1,1562271118164062/2/0,25145673751831055/0,2685075104236603/0,3189927935600281/0,1610429286956787
4,995984792709351/1,1475824117660522/2/0,25145673751831055/0,2685075104236603/0,3189927935600281/0,1610429286956787
4,995984792709351/1,1475824117660522/2/0,25145673751831055/0,2685075104236603/0,3189927935600281/0,1610429286956787
4,995984792709351/1,1634310483932495/2/0,25145673751831055/0,2685075104236603/0,3189927935600281/0,1610429286956787
4,995984792709351/1,1641514301300049/2/0,25145673751831055/0,2685075104236603/0,3189927935600281/0,1610429286956787
4,995984792709351/1,1483027935028076/2/0,25145673751831055/0,2685075104236603/0,3189927935600281/0,1610429286956787
4,995984792709351/1,1627106666564941/2/0,25145673751831055/0,2685075104236603/0,3189927935600281/0,1610429286956787
4,995984792709351/1,157667875289917/2/0,25145673751831055/0,2685075104236603/0,3189927935600281/0,1610429286956787
4,995984792709351/1,151904821395874/2/0,25145673751831055/0,2685075104236603/0,3189927935600281/0,1610429286956787
4,995984792709351/1,1641514301300049/2/0,25145673751831055/0,2685075104236603/0,3189927935600281/0,1610429286956787
4,995984792709351/1,160549521446228/2/0,25145673751831055/0,2685075104236603/0,3189927935600281/0,1610429286956787
4,995984792709351/1,1555067300796509/2/0,25145673751831055/0,2685075104236603/0,3189927935600281/0,1610429286956787
4,995984792709351/1,1591086387634277/2/0,25145673751831055/0,2685075104236603/0,3189927935600281/0,1610429286956787
4,995984792709351/1,1864835023880005/2/0,25145673751831055/0,2685075104236603/0,3189927935600281/0,1610429286956787
4,995984792709351/1,1785591840744019/2/0,25145673751831055/0,2685075104236603/0,3189927935600281/0,1610429286956787
4,995984792709351/1,1785591840744019/2/0,25145673751831055/0,2685075104236603/0,3189927935600281/0,1610429286956787
4,995984792709351/1,1742368936538696/2/0,25145673751831055/0,2685075104236603/0,3189927935600281/0,1610429286956787
4,995984792709351/1,1562271118164062/2/0,25145673751831055/0,2685075104236603/0,3189927935600281/0,1610429286956787
4,995984792709351/1,1540659666061401/2/0,25145673751831055/0,2685075104236603/0,3189927935600281/0,1610429286956787
4,995984792709351/1,1627106666564941/2/0,25145673751831055/0,2685075104236603/0,3189927935600281/0,1610429286956787
4,995984792709351/1,160549521446228/2/0,25145673751831055/0,2685075104236603/0,3189927935600281/0,1610429286956787
4,995984792709351/1,1425397396087646/2/0,25145673751831055/0,2685075104236603/0,3189927935600281/0,1610429286956787
4,995984792709351/1,1483027935028076/2/0,25145673751831055/0,2685075104236603/0,3189927935600281/0,1610429286956787
4,995984792709351/1,1691941022872925/2/0,25145673751831055/0,2685075104236603/0,3189927935600281/0,1610429286956787
4,995984792709351/1,159829020500183/2/0,25145673751831055/0,2685075104236603/0,3189927935600281/0,1610429286956787
4,995984792709351/1,1720757484436035/2/0,25145673751831055/0,2685075104236603/0,3189927935600281/0,1610429286956787
4,995984792709351/1,1763980388641357/2/0,25145673751831055/0,2685075104236603/0,3189927935600281/0,1610429286956787
4,995984792709351/1,1720757484436035/2/0,25145673751831055/0,2685075104236603/0,3189927935600281/0,1610429286956787
4,995984792709351/1,1713553667068481/2/0,25145673751831055/0,2685075104236603/0,3189927935600281/0,1610429286956787
4,995984792709351/1,1648718118667603/2/0,25145673751831055/0,2685075104236603/0,3189927935600281/0,1610429286956787
4,995984792709351/1,1439805030822754/2/0,25145673751831055/0,2685075104236603/0,3189927935600281/0,1610429286956787
4,995984792709351/1,1475824117660522/2/0,25145673751831055/0,2685075104236603/0,3189927935600281/0,1610429286956787
4,995984792709351/1,1742368936538696/2/0,25145673751831055/0,2685075104236603/0,3189927935600281/0,1610429286956787
4,995984792709351/1,1648718118667603/2/0,25145673751831055/0,2685075104236603/0,3189927935600281/0,1610429286956787
4,995984792709351/1,1540659666061401/2/0,25145673751831055/0,2685075104236603/0,3189927935600281/0,1610429286956787
4,995984792709351/1,1756776571273804/2/0,25145673751831055/0,2685075104236603/0,3189927935600281/0,1610429286956787
4,995984792709351/1,1648718118667603/2/0,25145673751831055/0,2685075104236603/0,3189927935600281/0,1610429286956787
4,995984792709351/1,1583882570266724/2/0,25145673751831055/0,2685075104236603/0,3189927935600281/0,1610429286956787
4,995984792709351/1,1648718118667603/2/0,25145673751831055/0,2685075104236603/0,3189927935600281/0,1610429286956787
4,995984792709351/1,1706349849700928/2/0,25145673751831055/0,2685075104236603/0,3189927935600281/0,1610429286956787
4,995984792709351/1,1569474935531616/2/0,25145673751831055/0,2685075104236603/0,3189927935600281/0,1610429286956787
4,995984792709351/1,1641514301300049/2/0,25145673751831055/0,2685075104236603/0,3189927935600281/0,1610429286956787
4,995984792709351/1,1778388023376465/2/0,25145673751831055/0,2685075104236603/0,3189927935600281/0,1610429286956787
4,995984792709351/1,1627106666564941/2/0,25145673751831055/0,2685075104236603/0,3189927935600281/0,1610429286956787
4,995984792709351/1,1634310483932495/2/0,25145673751831055/0,2685075104236603/0,3189927935600281/0,1610429286956787
4,995984792709351/1,1691941022872925/2/0,25145673751831055/0,2685075104236603/0,3189927935600281/0,1610429286956787
4,995984792709351/1,1526252031326294/2/0,25145673751831055/0,2685075104236603/0,3189927935600281/0,1610429286956787
4,995984792709351/1,1562271118164062/2/0,25145673751831055/0,2685075104236603/0,3189927935600281/0,1610429286956787
4,995984792709351/1,1843223571777344/2/0,25145673751831055/0,2685075104236603/0,3189927935600281/0,1610429286956787
4,995984792709351/1,1634310483932495/2/0,25145673751831055/0,2685075104236603/0,3189927935600281/0,1610429286956787
4,995984792709351/1,1504640579223633/2/0,25145673751831055/0,2685075104236603/0,3189927935600281/0,1610429286956787
4,995984792709351/1,1727961301803589/2/0,25145673751831055/0,2685075104236603/0,3189927935600281/0,1610429286956787
4,995984792709351/1,1677533388137817/2/0,25145673751831055/0,2685075104236603/0,3189927935600281/0,1610429286956787
4,995984792709351/1,1569474935531616/2/0,25145673751831055/0,2685075104236603/0,3189927935600281/0,1610429286956787
4,995984792709351/1,168473720550537/2/0,25145673751831055/0,2685075104236603/0,3189927935600281/0,1610429286956787
4,995984792709351/1,1828815937042236/2/0,25145673751831055/0,2685075104236603/0,3189927935600281/0,1610429286956787
4,995984792709351/1,1756776571273804/2/0,25145673751831055/0,2685075104236603/0,3189927935600281/0,1610429286956787
4,995984792709351/1,181440830230713/2/0,25145673751831055/0,2685075104236603/0,3189927935600281/0,1610429286956787
4,995984792709351/1,1857631206512451/2/0,25145673751831055/0,2685075104236603/0,3189927935600281/0,1610429286956787
4,995984792709351/1,1727961301803589/2/0,25145673751831055/0,2685075104236603/0,3189927935600281/0,1610429286956787
4,995984792709351/1,1655921936035156/2/0,25145673751831055/0,2685075104236603/0,3189927935600281/0,1610429286956787
4,995984792709351/1,1763980388641357/2/0,25145673751831055/0,2685075104236603/0,3189927935600281/0,1610429286956787
4,995984792709351/1,1756776571273804/2/0,25145673751831055/0,2685075104236603/0,3189927935600281/0,1610429286956787
4,995984792709351/1,1655921936035156/2/0,25145673751831055/0,2685075104236603/0,3189927935600281/0,1610429286956787
4,995984792709351/1,1670329570770264/2/0,25145673751831055/0,2685075104236603/0,3189927935600281/0,1610429286956787
4,995984792709351/1,1706349849700928/2/0,25145673751831055/0,2685075104236603/0,3189927935600281/0,1610429286956787
4,995984792709351/1,1699146032333374/2/0,25145673751831055/0,2685075104236603/0,3189927935600281/0,1610429286956787
4,995984792709351/1,1908059120178223/2/0,25145673751831055/0,2685075104236603/0,3189927935600281/0,1610429286956787
4,995984792709351/1,1886446475982666/2/0,25145673751831055/0,2685075104236603/0,3189927935600281/0,1610429286956787
4,995984792709351/1,1627106666564941/2/0,25145673751831055/0,2685075104236603/0,3189927935600281/0,1610429286956787
4,995984792709351/1,1706349849700928/2/0,25145673751831055/0,2685075104236603/0,3189927935600281/0,1610429286956787
4,995984792709351/1,1828815937042236/2/0,25145673751831055/0,2685075104236603/0,3189927935600281/0,1610429286956787
4,995984792709351/1,1569474935531616/2/0,25145673751831055/0,2685075104236603/0,3189927935600281/0,1610429286956787
4,995984792709351/1,1555067300796509/2/0,25145673751831055/0,2685075104236603/0,3189927935600281/0,1610429286956787
4,995984792709351/1,160549521446228/2/0,25145673751831055/0,2685075104236603/0,3189927935600281/0,1610429286956787
4,995984792709351/1,166312575340271/2/0,25145673751831055/0,2685075104236603/0,3189927935600281/0,1610429286956787
4,995984792709351/1,1612699031829834/2/0,25145673751831055/0,2685075104236603/0,3189927935600281/0,1610429286956787
4,995984792709351/1,1641514301300049/2/0,25145673751831055/0,2685075104236603/0,3189927935600281/0,1610429286956787
4,995984792709351/1,1533455848693848/2/0,25145673751831055/0,2685075104236603/0,3189927935600281/0,1610429286956787
4,995984792709351/1,1475824117660522/2/0,25145673751831055/0,2685075104236603/0,3189927935600281/0,1610429286956787
4,995984792709351/1,1691941022872925/2/0,25145673751831055/0,2685075104236603/0,3189927935600281/0,1610429286956787
4,995984792709351/1,1540659666061401/2/0,25145673751831055/0,2685075104236603/0,3189927935600281/0,1610429286956787
4,995984792709351/1,1497435569763184/2/0,25145673751831055/0,2685075104236603/0,3189927935600281/0,1610429286956787
4,995984792709351/1,1641514301300049/2/0,25145673751831055/0,2685075104236603/0,3189927935600281/0,1610429286956787
4,995984792709351/1,1612699031829834/2/0,25145673751831055/0,2685075104236603/0,3189927935600281/0,1610429286956787
4,995984792709351/1,157667875289917/2/0,25145673751831055/0,2685075104236603/0,3189927935600281/0,1610429286956787
4,995984792709351/1,1634310483932495/2/0,25145673751831055/0,2685075104236603/0,3189927935600281/0,1610429286956787
4,995984792709351/1,168473720550537/2/0,25145673751831055/0,2685075104236603/0,3189927935600281/0,1610429286956787
4,995984792709351/1,1418193578720093/2/0,25145673751831055/0,2685075104236603/0,3189927935600281/0,1610429286956787
4,995984792709351/1,1562271118164062/2/0,25145673751831055/0,2685075104236603/0,3189927935600281/0,1610429286956787
4,995984792709351/1,1735165119171143/2/0,25145673751831055/0,2685075104236603/0,3189927935600281/0,1610429286956787
4,995984792709351/1,1612699031829834/2/0,25145673751831055/0,2685075104236603/0,3189927935600281/0,1610429286956787
4,995984792709351/1,1533455848693848/2/0,25145673751831055/0,2685075104236603/0,3189927935600281/0,1610429286956787
4,995984792709351/1,1540659666061401/2/0,25145673751831055/0,2685075104236603/0,3189927935600281/0,1610429286956787
4,995984792709351/1,1483027935028076/2/0,25145673751831055/0,2685075104236603/0,3189927935600281/0,1610429286956787
4,995984792709351/1,1418193578720093/2/0,25145673751831055/0,2685075104236603/0,3189927935600281/0,1610429286956787
4,995984792709351/1,1591086387634277/2/0,25145673751831055/0,2685075104236603/0,3189927935600281/0,1610429286956787
4,995984792709351/1,1655921936035156/2/0,25145673751831055/0,2685075104236603/0,3189927935600281/0,1610429286956787
4,995984792709351/1,1533455848693848/2/0,25145673751831055/0,2685075104236603/0,3189927935600281/0,1610429286956787
4,995984792709351/1,1677533388137817/2/0,25145673751831055/0,2685075104236603/0,3189927935600281/0,1610429286956787
4,995984792709351/1,1641514301300049/2/0,25145673751831055/0,2685075104236603/0,3189927935600281/0,1610429286956787
4,995984792709351/1,1634310483932495/2/0,25145673751831055/0,2685075104236603/0,3189927935600281/0,1610429286956787
4,995984792709351/1,1756776571273804/2/0,25145673751831055/0,2685075104236603/0,3189927935600281/0,1610429286956787
4,995984792709351/1,1857631206512451/2/0,25145673751831055/0,2685075104236603/0,3189927935600281/0,1610429286956787
4,995984792709351/1,1655921936035156/2/0,25145673751831055/0,2685075104236603/0,3189927935600281/0,1610429286956787
4,995984792709351/1,160549521446228/2/0,25145673751831055/0,2685075104236603/0,3189927935600281/0,1610429286956787
4,995984792709351/1,1641514301300049/2/0,25145673751831055/0,2685075104236603/0,3189927935600281/0,1610429286956787
4,995984792709351/1,1533455848693848/2/0,25145673751831055/0,2685075104236603/0,3189927935600281/0,1610429286956787
4,995984792709351/1,1562271118164062/2/0,25145673751831055/0,2685075104236603/0,3189927935600281/0,1610429286956787
4,995984792709351/1,1720757484436035/2/0,25145673751831055/0,2685075104236603/0,3189927935600281/0,1610429286956787
4,995984792709351/1,1655921936035156/2/0,25145673751831055/0,2685075104236603/0,3189927935600281/0,1610429286956787
4,995984792709351/1,1691941022872925/2/0,25145673751831055/0,2685075104236603/0,3189927935600281/0,1610429286956787
4,995984792709351/1,1540659666061401/2/0,25145673751831055/0,2685075104236603/0,3189927935600281/0,1610429286956787
4,995984792709351/1,1526252031326294/2/0,25145673751831055/0,2685075104236603/0,3189927935600281/0,1610429286956787
4,995984792709351/1,157667875289917/2/0,25145673751831055/0,2685075104236603/0,3189927935600281/0,1610429286956787
4,995984792709351/1,1756776571273804/2/0,25145673751831055/0,2685075104236603/0,3189927935600281/0,1610429286956787
4,995984792709351/1,1727961301803589/2/0,25145673751831055/0,2685075104236603/0,3189927935600281/0,1610429286956787
4,995984792709351/1,1792796850204468/2/0,25145673751831055/0,2685075104236603/0,3189927935600281/0,1610429286956787
4,995984792709351/1,1850427389144897/2/0,25145673751831055/0,2685075104236603/0,3189927935600281/0,1610429286956787
4,995984792709351/1,1655921936035156/2/0,25145673751831055/0,2685075104236603/0,3189927935600281/0,1610429286956787
4,995984792709351/1,157667875289917/2/0,25145673751831055/0,2685075104236603/0,3189927935600281/0,1610429286956787
4,995984792709351/1,159829020500183/2/0,25145673751831055/0,2685075104236603/0,3189927935600281/0,1610429286956787
4,995984792709351/1,157667875289917/2/0,25145673751831055/0,2685075104236603/0,3189927935600281/0,1610429286956787
4,995984792709351/1,1547863483428955/2/0,25145673751831055/0,2685075104236603/0,3189927935600281/0,1610429286956787
4,995984792709351/1,140378475189209/2/0,25145673751831055/0,2685075104236603/0,3189927935600281/0,1610429286956787
4,995984792709351/1,160549521446228/2/0,25145673751831055/0,2685075104236603/0,3189927935600281/0,1610429286956787
4,995984792709351/1,1691941022872925/2/0,25145673751831055/0,2685075104236603/0,3189927935600281/0,1610429286956787
4,995984792709351/1,157667875289917/2/0,25145673751831055/0,2685075104236603/0,3189927935600281/0,1610429286956787
4,995984792709351/1,160549521446228/2/0,25145673751831055/0,2685075104236603/0,3189927935600281/0,1610429286956787
4,995984792709351/1,1699146032333374/2/0,25145673751831055/0,2685075104236603/0,3189927935600281/0,1610429286956787
4,995984792709351/1,1583882570266724/2/0,25145673751831055/0,2685075104236603/0,3189927935600281/0,1610429286956787
4,995984792709351/1,1612699031829834/2/0,25145673751831055/0,2685075104236603/0,3189927935600281/0,1610429286956787
4,995984792709351/1,1800000667572021/2/0,25145673751831055/0,2685075104236603/0,3189927935600281/0,1610429286956787
4,995984792709351/1,160549521446228/2/0,25145673751831055/0,2685075104236603/0,3189927935600281/0,1610429286956787
4,995984792709351/1,1540659666061401/2/0,25145673751831055/0,2685075104236603/0,3189927935600281/0,1610429286956787
4,995984792709351/1,1691941022872925/2/0,25145673751831055/0,2685075104236603/0,3189927935600281/0,1610429286956787
4,995984792709351/1,1727961301803589/2/0,25145673751831055/0,2685075104236603/0,3189927935600281/0,1610429286956787
4,995984792709351/1,1720757484436035/2/0,25145673751831055/0,2685075104236603/0,3189927935600281/0,1610429286956787
4,995984792709351/1,1792796850204468/2/0,25145673751831055/0,2685075104236603/0,3189927935600281/0,1610429286956787
4,995984792709351/1,174957275390625/2/0,25145673751831055/0,2685075104236603/0,3189927935600281/0,1610429286956787
4,995984792709351/1,1648718118667603/2/0,25145673751831055/0,2685075104236603/0,3189927935600281/0,1610429286956787
4,995984792709351/1,1850427389144897/2/0,25145673751831055/0,2685075104236603/0,3189927935600281/0,1610429286956787
4,995984792709351/1,181440830230713/2/0,25145673751831055/0,2685075104236603/0,3189927935600281/0,1610429286956787
4,995984792709351/1,159829020500183/2/0,25145673751831055/0,2685075104236603/0,3189927935600281/0,1610429286956787
4,995984792709351/1,1612699031829834/2/0,25145673751831055/0,2685075104236603/0,3189927935600281/0,1610429286956787
4,995984792709351/1,1591086387634277/2/0,25145673751831055/0,2685075104236603/0,3189927935600281/0,1610429286956787
4,995984792709351/1,1475824117660522/2/0,25145673751831055/0,2685075104236603/0,3189927935600281/0,1610429286956787
4,995984792709351/1,160549521446228/2/0,25145673751831055/0,2685075104236603/0,3189927935600281/0,1610429286956787
4,995984792709351/1,1735165119171143/2/0,25145673751831055/0,2685075104236603/0,3189927935600281/0,1610429286956787
4,995984792709351/1,1562271118164062/2/0,25145673751831055/0,2685075104236603/0,3189927935600281/0,1610429286956787
4,995984792709351/1,166312575340271/2/0,25145673751831055/0,2685075104236603/0,3189927935600281/0,1610429286956787
4,995984792709351/1,1583882570266724/2/0,25145673751831055/0,2685075104236603/0,3189927935600281/0,1610429286956787
4,995984792709351/1,1475824117660522/2/0,25145673751831055/0,2685075104236603/0,3189927935600281/0,1610429286956787
4,995984792709351/1,1583882570266724/2/0,25145673751831055/0,2685075104236603/0,3189927935600281/0,1610429286956787
4,995984792709351/1,181440830230713/2/0,25145673751831055/0,2685075104236603/0,3189927935600281/0,1610429286956787
4,995984792709351/1,1641514301300049/2/0,25145673751831055/0,2685075104236603/0,3189927935600281/0,1610429286956787
4,995984792709351/1,1569474935531616/2/0,25145673751831055/0,2685075104236603/0,3189927935600281/0,1610429286956787
4,995984792709351/1,1612699031829834/2/0,25145673751831055/0,2685075104236603/0,3189927935600281/0,1610429286956787
4,995984792709351/1,1720757484436035/2/0,25145673751831055/0,2685075104236603/0,3189927935600281/0,1610429286956787
4,995984792709351/1,174957275390625/2/0,25145673751831055/0,2685075104236603/0,3189927935600281/0,1610429286956787
4,995984792709351/1,1886446475982666/2/0,25145673751831055/0,2685075104236603/0,3189927935600281/0,1610429286956787
4,995984792709351/1,1778388023376465/2/0,25145673751831055/0,2685075104236603/0,3189927935600281/0,1610429286956787
4,995984792709351/1,1742368936538696/2/0,25145673751831055/0,2685075104236603/0,3189927935600281/0,1610429286956787
4,995984792709351/1,190085530281067/2/0,25145673751831055/0,2685075104236603/0,3189927935600281/0,1610429286956787
4,995984792709351/1,1958485841751099/2/0,25145673751831055/0,2685075104236603/0,3189927935600281/0,1610429286956787
4,995984792709351/1,1735165119171143/2/0,25145673751831055/0,2685075104236603/0,3189927935600281/0,1610429286956787
4,995984792709351/1,1785591840744019/2/0,25145673751831055/0,2685075104236603/0,3189927935600281/0,1610429286956787
4,995984792709351/1,181440830230713/2/0,25145673751831055/0,2685075104236603/0,3189927935600281/0,1610429286956787
4,995984792709351/1,1699146032333374/2/0,25145673751831055/0,2685075104236603/0,3189927935600281/0,1610429286956787
4,995984792709351/1,1648718118667603/2/0,25145673751831055/0,2685075104236603/0,3189927935600281/0,1610429286956787
4,995984792709351/1,174957275390625/2/0,25145673751831055/0,2685075104236603/0,3189927935600281/0,1610429286956787
4,995984792709351/1,1800000667572021/2/0,25145673751831055/0,2685075104236603/0,3189927935600281/0,1610429286956787
4,995984792709351/1,1547863483428955/2/0,25145673751831055/0,2685075104236603/0,3189927935600281/0,1610429286956787
4,995984792709351/1,168473720550537/2/0,25145673751831055/0,2685075104236603/0,3189927935600281/0,1610429286956787
4,995984792709351/1,1670329570770264/2/0,25145673751831055/0,2685075104236603/0,3189927935600281/0,1610429286956787
4,995984792709351/1,1504640579223633/2/0,25145673751831055/0,2685075104236603/0,3189927935600281/0,1610429286956787
4,995984792709351/1,151904821395874/2/0,25145673751831055/0,2685075104236603/0,3189927935600281/0,1610429286956787
4,995984792709351/1,1634310483932495/2/0,25145673751831055/0,2685075104236603/0,3189927935600281/0,1610429286956787
4,995984792709351/1,1583882570266724/2/0,25145673751831055/0,2685075104236603/0,3189927935600281/0,1610429286956787
4,995984792709351/1,157667875289917/2/0,25145673751831055/0,2685075104236603/0,3189927935600281/0,1610429286956787
4,995984792709351/1,168473720550537/2/0,25145673751831055/0,2685075104236603/0,3189927935600281/0,1610429286956787
4,995984792709351/1,166312575340271/2/0,25145673751831055/0,2685075104236603/0,3189927935600281/0,1610429286956787
4,995984792709351/1,1583882570266724/2/0,25145673751831055/0,2685075104236603/0,3189927935600281/0,1610429286956787
4,995984792709351/1,1569474935531616/2/0,25145673751831055/0,2685075104236603/0,3189927935600281/0,1610429286956787
4,995984792709351/1,1555067300796509/2/0,25145673751831055/0,2685075104236603/0,3189927935600281/0,1610429286956787
4,995984792709351/1,1547863483428955/2/0,25145673751831055/0,2685075104236603/0,3189927935600281/0,1610429286956787
4,995984792709351/1,166312575340271/2/0,25145673751831055/0,2685075104236603/0,3189927935600281/0,1610429286956787
4,995984792709351/1,1569474935531616/2/0,25145673751831055/0,2685075104236603/0,3189927935600281/0,1610429286956787
4,995984792709351/1,1547863483428955/2/0,25145673751831055/0,2685075104236603/0,3189927935600281/0,1610429286956787
4,995984792709351/1,157667875289917/2/0,25145673751831055/0,2685075104236603/0,3189927935600281/0,1610429286956787
4,995984792709351/1,1677533388137817/2/0,25145673751831055/0,2685075104236603/0,3189927935600281/0,1610429286956787
4,995984792709351/1,1497435569763184/2/0,25145673751831055/0,2685075104236603/0,3189927935600281/0,1610429286956787
4,995984792709351/1,1641514301300049/2/0,25145673751831055/0,2685075104236603/0,3189927935600281/0,1610429286956787
4,995984792709351/1,1627106666564941/2/0,25145673751831055/0,2685075104236603/0,3189927935600281/0,1610429286956787
4,995984792709351/1,1619902849197388/2/0,25145673751831055/0,2685075104236603/0,3189927935600281/0,1610429286956787
4,995984792709351/1,14326012134552/2/0,25145673751831055/0,2685075104236603/0,3189927935600281/0,1610429286956787
4,995984792709351/1,1483027935028076/2/0,25145673751831055/0,2685075104236603/0,3189927935600281/0,1610429286956787
4,995984792709351/1,14326012134552/2/0,25145673751831055/0,2685075104236603/0,3189927935600281/0,1610429286956787
4,995984792709351/1,1569474935531616/2/0,25145673751831055/0,2685075104236603/0,3189927935600281/0,1610429286956787
4,995984792709351/1,1677533388137817/2/0,25145673751831055/0,2685075104236603/0,3189927935600281/0,1610429286956787
4,995984792709351/1,1699146032333374/2/0,25145673751831055/0,2685075104236603/0,3189927935600281/0,1610429286956787
4,995984792709351/1,1720757484436035/2/0,25145673751831055/0,2685075104236603/0,3189927935600281/0,1610429286956787
4,995984792709351/1,1778388023376465/2/0,25145673751831055/0,2685075104236603/0,3189927935600281/0,1610429286956787
4,995984792709351/1,1699146032333374/2/0,25145673751831055/0,2685075104236603/0,3189927935600281/0,1610429286956787
4,995984792709351/1,1648718118667603/2/0,25145673751831055/0,2685075104236603/0,3189927935600281/0,1610429286956787
4,995984792709351/1,166312575340271/2/0,25145673751831055/0,2685075104236603/0,3189927935600281/0,1610429286956787
4,995984792709351/1,174957275390625/2/0,25145673751831055/0,2685075104236603/0,3189927935600281/0,1610429286956787
4,995984792709351/1,1756776571273804/2/0,25145673751831055/0,2685075104236603/0,3189927935600281/0,1610429286956787
4,995984792709351/1,174957275390625/2/0,25145673751831055/0,2685075104236603/0,3189927935600281/0,1610429286956787
4,995984792709351/1,181440830230713/2/0,25145673751831055/0,2685075104236603/0,3189927935600281/0,1610429286956787
4,995984792709351/1,1763980388641357/2/0,25145673751831055/0,2685075104236603/0,3189927935600281/0,1610429286956787
4,995984792709351/1,1727961301803589/2/0,25145673751831055/0,2685075104236603/0,3189927935600281/0,1610429286956787
4,995984792709351/1,1864835023880005/2/0,25145673751831055/0,2685075104236603/0,3189927935600281/0,1610429286956787
4,995984792709351/1,1720757484436035/2/0,25145673751831055/0,2685075104236603/0,3189927935600281/0,1610429286956787
4,995984792709351/1,159829020500183/2/0,25145673751831055/0,2685075104236603/0,3189927935600281/0,1610429286956787
4,995984792709351/1,1742368936538696/2/0,25145673751831055/0,2685075104236603/0,3189927935600281/0,1610429286956787
4,995984792709351/1,1627106666564941/2/0,25145673751831055/0,2685075104236603/0,3189927935600281/0,1610429286956787
4,995984792709351/1,1569474935531616/2/0,25145673751831055/0,2685075104236603/0,3189927935600281/0,1610429286956787
4,995984792709351/1,1591086387634277/2/0,25145673751831055/0,2685075104236603/0,3189927935600281/0,1610429286956787
4,995984792709351/1,1641514301300049/2/0,25145673751831055/0,2685075104236603/0,3189927935600281/0,1610429286956787
4,995984792709351/1,1526252031326294/2/0,25145673751831055/0,2685075104236603/0,3189927935600281/0,1610429286956787
4,995984792709351/1,1569474935531616/2/0,25145673751831055/0,2685075104236603/0,3189927935600281/0,1610429286956787
4,995984792709351/1,1569474935531616/2/0,25145673751831055/0,2685075104236603/0,3189927935600281/0,1610429286956787
4,995984792709351/1,1389377117156982/2/0,25145673751831055/0,2685075104236603/0,3189927935600281/0,1610429286956787
4,995984792709351/1,1504640579223633/2/0,25145673751831055/0,2685075104236603/0,3189927935600281/0,1610429286956787
4,995984792709351/1,1634310483932495/2/0,25145673751831055/0,2685075104236603/0,3189927935600281/0,1610429286956787
4,995984792709351/1,1475824117660522/2/0,25145673751831055/0,2685075104236603/0,3189927935600281/0,1610429286956787
4,995984792709351/1,160549521446228/2/0,25145673751831055/0,2685075104236603/0,3189927935600281/0,1610429286956787
4,995984792709351/1,1641514301300049/2/0,25145673751831055/0,2685075104236603/0,3189927935600281/0,1610429286956787
4,995984792709351/1,1641514301300049/2/0,25145673751831055/0,2685075104236603/0,3189927935600281/0,1610429286956787
4,995984792709351/1,1591086387634277/2/0,25145673751831055/0,2685075104236603/0,3189927935600281/0,1610429286956787
4,995984792709351/1,168473720550537/2/0,25145673751831055/0,2685075104236603/0,3189927935600281/0,1610429286956787
4,995984792709351/1,168473720550537/2/0,25145673751831055/0,2685075104236603/0,3189927935600281/0,1610429286956787
4,995984792709351/1,1756776571273804/2/0,25145673751831055/0,2685075104236603/0,3189927935600281/0,1610429286956787
4,995984792709351/1,1756776571273804/2/0,25145673751831055/0,2685075104236603/0,3189927935600281/0,1610429286956787
4,995984792709351/1,1735165119171143/2/0,25145673751831055/0,2685075104236603/0,3189927935600281/0,1610429286956787
4,995984792709351/1,1771184206008911/2/0,25145673751831055/0,2685075104236603/0,3189927935600281/0,1610429286956787
4,995984792709351/1,1857631206512451/2/0,25145673751831055/0,2685075104236603/0,3189927935600281/0,1610429286956787
4,995984792709351/1,1785591840744019/2/0,25145673751831055/0,2685075104236603/0,3189927935600281/0,1610429286956787
4,995984792709351/1,1706349849700928/2/0,25145673751831055/0,2685075104236603/0,3189927935600281/0,1610429286956787
4,995984792709351/1,174957275390625/2/0,25145673751831055/0,2685075104236603/0,3189927935600281/0,1610429286956787
4,995984792709351/1,1720757484436035/2/0,25145673751831055/0,2685075104236603/0,3189927935600281/0,1610429286956787
4,995984792709351/1,1641514301300049/2/0,25145673751831055/0,2685075104236603/0,3189927935600281/0,1610429286956787
4,995984792709351/1,1619902849197388/2/0,25145673751831055/0,2685075104236603/0,3189927935600281/0,1610429286956787
4,995984792709351/1,183601975440979/2/0,25145673751831055/0,2685075104236603/0,3189927935600281/0,1610429286956787
4,995984792709351/1,1691941022872925/2/0,25145673751831055/0,2685075104236603/0,3189927935600281/0,1610429286956787
4,995984792709351/1,1727961301803589/2/0,25145673751831055/0,2685075104236603/0,3189927935600281/0,1610429286956787
4,995984792709351/1,1763980388641357/2/0,25145673751831055/0,2685075104236603/0,3189927935600281/0,1610429286956787
4,995984792709351/1,1699146032333374/2/0,25145673751831055/0,2685075104236603/0,3189927935600281/0,1610429286956787
4,995984792709351/1,1691941022872925/2/0,25145673751831055/0,2685075104236603/0,3189927935600281/0,1610429286956787
4,995984792709351/1,1800000667572021/2/0,25145673751831055/0,2685075104236603/0,3189927935600281/0,1610429286956787
4,995984792709351/1,1800000667572021/2/0,25145673751831055/0,2685075104236603/0,3189927935600281/0,1610429286956787
4,995984792709351/1,1771184206008911/2/0,25145673751831055/0,2685075104236603/0,3189927935600281/0,1610429286956787
4,995984792709351/1,1763980388641357/2/0,25145673751831055/0,2685075104236603/0,3189927935600281/0,1610429286956787
4,995984792709351/1,1879242658615112/2/0,25145673751831055/0,2685075104236603/0,3189927935600281/0,1610429286956787
4,995984792709351/1,1634310483932495/2/0,25145673751831055/0,2685075104236603/0,3189927935600281/0,1610429286956787
4,995984792709351/1,1792796850204468/2/0,25145673751831055/0,2685075104236603/0,3189927935600281/0,1610429286956787
4,995984792709351/1,1908059120178223/2/0,25145673751831055/0,2685075104236603/0,3189927935600281/0,1610429286956787
4,995984792709351/1,1735165119171143/2/0,25145673751831055/0,2685075104236603/0,3189927935600281/0,1610429286956787
4,995984792709351/1,181440830230713/2/0,25145673751831055/0,2685075104236603/0,3189927935600281/0,1610429286956787
4,995984792709351/1,1872038841247559/2/0,25145673751831055/0,2685075104236603/0,3189927935600281/0,1610429286956787
4,995984792709351/1,1756776571273804/2/0,25145673751831055/0,2685075104236603/0,3189927935600281/0,1610429286956787
4,995984792709351/1,174957275390625/2/0,25145673751831055/0,2685075104236603/0,3189927935600281/0,1610429286956787
4,995984792709351/1,1735165119171143/2/0,25145673751831055/0,2685075104236603/0,3189927935600281/0,1610429286956787
4,995984792709351/1,1727961301803589/2/0,25145673751831055/0,2685075104236603/0,3189927935600281/0,1610429286956787
4,995984792709351/1,1641514301300049/2/0,25145673751831055/0,2685075104236603/0,3189927935600281/0,1610429286956787
4,995984792709351/1,1648718118667603/2/0,25145673751831055/0,2685075104236603/0,3189927935600281/0,1610429286956787
4,995984792709351/1,1569474935531616/2/0,25145673751831055/0,2685075104236603/0,3189927935600281/0,1610429286956787
4,995984792709351/1,151904821395874/2/0,25145673751831055/0,2685075104236603/0,3189927935600281/0,1610429286956787
4,995984792709351/1,1583882570266724/2/0,25145673751831055/0,2685075104236603/0,3189927935600281/0,1610429286956787
4,995984792709351/1,160549521446228/2/0,25145673751831055/0,2685075104236603/0,3189927935600281/0,1610429286956787
4,995984792709351/1,1634310483932495/2/0,25145673751831055/0,2685075104236603/0,3189927935600281/0,1610429286956787
4,995984792709351/1,1727961301803589/2/0,25145673751831055/0,2685075104236603/0,3189927935600281/0,1610429286956787
4,995984792709351/1,1699146032333374/2/0,25145673751831055/0,2685075104236603/0,3189927935600281/0,1610429286956787
4,995984792709351/1,1562271118164062/2/0,25145673751831055/0,2685075104236603/0,3189927935600281/0,1610429286956787
4,995984792709351/1,1727961301803589/2/0,25145673751831055/0,2685075104236603/0,3189927935600281/0,1610429286956787
4,995984792709351/1,1713553667068481/2/0,25145673751831055/0,2685075104236603/0,3189927935600281/0,1610429286956787
4,995984792709351/1,1641514301300049/2/0,25145673751831055/0,2685075104236603/0,3189927935600281/0,1610429286956787
4,995984792709351/1,1555067300796509/2/0,25145673751831055/0,2685075104236603/0,3189927935600281/0,1610429286956787
4,995984792709351/1,1756776571273804/2/0,25145673751831055/0,2685075104236603/0,3189927935600281/0,1610429286956787
4,995984792709351/1,1591086387634277/2/0,25145673751831055/0,2685075104236603/0,3189927935600281/0,1610429286956787
4,995984792709351/1,1583882570266724/2/0,25145673751831055/0,2685075104236603/0,3189927935600281/0,1610429286956787
4,995984792709351/1,1713553667068481/2/0,25145673751831055/0,2685075104236603/0,3189927935600281/0,1610429286956787
4,995984792709351/1,1756776571273804/2/0,25145673751831055/0,2685075104236603/0,3189927935600281/0,1610429286956787
4,995984792709351/1,1583882570266724/2/0,25145673751831055/0,2685075104236603/0,3189927935600281/0,1610429286956787
4,995984792709351/1,1828815937042236/2/0,25145673751831055/0,2685075104236603/0,3189927935600281/0,1610429286956787
4,995984792709351/1,1944078207015991/2/0,25145673751831055/0,2685075104236603/0,3189927935600281/0,1610429286956787
4,995984792709351/1,183601975440979/2/0,25145673751831055/0,2685075104236603/0,3189927935600281/0,1610429286956787
4,995984792709351/1,1864835023880005/2/0,25145673751831055/0,2685075104236603/0,3189927935600281/0,1610429286956787
4,995984792709351/1,1720757484436035/2/0,25145673751831055/0,2685075104236603/0,3189927935600281/0,1610429286956787
4,995984792709351/1,1691941022872925/2/0,25145673751831055/0,2685075104236603/0,3189927935600281/0,1610429286956787
4,995984792709351/1,1792796850204468/2/0,25145673751831055/0,2685075104236603/0,3189927935600281/0,1610429286956787
4,995984792709351/1,1944078207015991/2/0,25145673751831055/0,2685075104236603/0,3189927935600281/0,1610429286956787
4,995984792709351/1,1699146032333374/2/0,25145673751831055/0,2685075104236603/0,3189927935600281/0,1610429286956787
4,995984792709351/1,1677533388137817/2/0,25145673751831055/0,2685075104236603/0,3189927935600281/0,1610429286956787
4,995984792709351/1,1756776571273804/2/0,25145673751831055/0,2685075104236603/0,3189927935600281/0,1610429286956787
4,995984792709351/1,1720757484436035/2/0,25145673751831055/0,2685075104236603/0,3189927935600281/0,1610429286956787
4,995984792709351/1,1634310483932495/2/0,25145673751831055/0,2685075104236603/0,3189927935600281/0,1610429286956787
4,995984792709351/1,1691941022872925/2/0,25145673751831055/0,2685075104236603/0,3189927935600281/0,1610429286956787
4,995984792709351/1,1583882570266724/2/0,25145673751831055/0,2685075104236603/0,3189927935600281/0,1610429286956787
4,995984792709351/1,1677533388137817/2/0,25145673751831055/0,2685075104236603/0,3189927935600281/0,1610429286956787
4,995984792709351/1,1763980388641357/2/0,25145673751831055/0,2685075104236603/0,3189927935600281/0,1610429286956787
4,995984792709351/1,1720757484436035/2/0,25145673751831055/0,2685075104236603/0,3189927935600281/0,1610429286956787
4,995984792709351/1,1547863483428955/2/0,25145673751831055/0,2685075104236603/0,3189927935600281/0,1610429286956787
4,995984792709351/1,1670329570770264/2/0,25145673751831055/0,2685075104236603/0,3189927935600281/0,1610429286956787
4,995984792709351/1,1634310483932495/2/0,25145673751831055/0,2685075104236603/0,3189927935600281/0,1610429286956787
4,995984792709351/1,1497435569763184/2/0,25145673751831055/0,2685075104236603/0,3189927935600281/0,1610429286956787
4,995984792709351/1,160549521446228/2/0,25145673751831055/0,2685075104236603/0,3189927935600281/0,1610429286956787
4,995984792709351/1,1641514301300049/2/0,25145673751831055/0,2685075104236603/0,3189927935600281/0,1610429286956787
4,995984792709351/1,1555067300796509/2/0,25145673751831055/0,2685075104236603/0,3189927935600281/0,1610429286956787
4,995984792709351/1,1634310483932495/2/0,25145673751831055/0,2685075104236603/0,3189927935600281/0,1610429286956787
4,995984792709351/1,1691941022872925/2/0,25145673751831055/0,2685075104236603/0,3189927935600281/0,1610429286956787
4,995984792709351/1,1547863483428955/2/0,25145673751831055/0,2685075104236603/0,3189927935600281/0,1610429286956787
4,995984792709351/1,1569474935531616/2/0,25145673751831055/0,2685075104236603/0,3189927935600281/0,1610429286956787
4,995984792709351/1,159829020500183/2/0,25145673751831055/0,2685075104236603/0,3189927935600281/0,1610429286956787
4,995984792709351/1,1583882570266724/2/0,25145673751831055/0,2685075104236603/0,3189927935600281/0,1610429286956787
4,995984792709351/1,166312575340271/2/0,25145673751831055/0,2685075104236603/0,3189927935600281/0,1610429286956787
4,995984792709351/1,1655921936035156/2/0,25145673751831055/0,2685075104236603/0,3189927935600281/0,1610429286956787
4,995984792709351/1,1691941022872925/2/0,25145673751831055/0,2685075104236603/0,3189927935600281/0,1610429286956787
4,995984792709351/1,1562271118164062/2/0,25145673751831055/0,2685075104236603/0,3189927935600281/0,1610429286956787
4,995984792709351/1,1619902849197388/2/0,25145673751831055/0,2685075104236603/0,3189927935600281/0,1610429286956787
6,086864471435547/1,1756776571273804/1/0,2511506676673889/0,32277533411979675/0,2609129846096039/0,16516099870204926
6,086864471435547/1,160549521446228/1/0,2511506676673889/0,32277533411979675/0,2609129846096039/0,16516099870204926
6,086864471435547/1,149023175239563/1/0,2511506676673889/0,32277533411979675/0,2609129846096039/0,16516099870204926
6,086864471435547/1,1447008848190308/1/0,2511506676673889/0,32277533411979675/0,2609129846096039/0,16516099870204926
6,086864471435547/1,1483027935028076/1/0,2511506676673889/0,32277533411979675/0,2609129846096039/0,16516099870204926
6,086864471435547/1,1497435569763184/1/0,2511506676673889/0,32277533411979675/0,2609129846096039/0,16516099870204926
6,086864471435547/1,1504640579223633/1/0,2511506676673889/0,32277533411979675/0,2609129846096039/0,16516099870204926
6,086864471435547/1,1634310483932495/1/0,2511506676673889/0,32277533411979675/0,2609129846096039/0,16516099870204926
6,086864471435547/1,1569474935531616/1/0,2511506676673889/0,32277533411979675/0,2609129846096039/0,16516099870204926
6,086864471435547/1,1547863483428955/1/0,2511506676673889/0,32277533411979675/0,2609129846096039/0,16516099870204926
6,086864471435547/1,1504640579223633/1/0,2511506676673889/0,32277533411979675/0,2609129846096039/0,16516099870204926
6,086864471435547/1,1425397396087646/1/0,2511506676673889/0,32277533411979675/0,2609129846096039/0,16516099870204926
6,086864471435547/1,1447008848190308/1/0,2511506676673889/0,32277533411979675/0,2609129846096039/0,16516099870204926
6,086864471435547/1,1483027935028076/1/0,2511506676673889/0,32277533411979675/0,2609129846096039/0,16516099870204926
6,086864471435547/1,1483027935028076/1/0,2511506676673889/0,32277533411979675/0,2609129846096039/0,16516099870204926
6,086864471435547/1,14326012134552/1/0,2511506676673889/0,32277533411979675/0,2609129846096039/0,16516099870204926
6,086864471435547/1,1425397396087646/1/0,2511506676673889/0,32277533411979675/0,2609129846096039/0,16516099870204926
6,086864471435547/1,1389377117156982/1/0,2511506676673889/0,32277533411979675/0,2609129846096039/0,16516099870204926
6,086864471435547/1,14326012134552/1/0,2511506676673889/0,32277533411979675/0,2609129846096039/0,16516099870204926
6,086864471435547/1,1425397396087646/1/0,2511506676673889/0,32277533411979675/0,2609129846096039/0,16516099870204926
6,086864471435547/1,1483027935028076/1/0,2511506676673889/0,32277533411979675/0,2609129846096039/0,16516099870204926
6,086864471435547/1,1591086387634277/1/0,2511506676673889/0,32277533411979675/0,2609129846096039/0,16516099870204926
6,086864471435547/1,1677533388137817/1/0,2511506676673889/0,32277533411979675/0,2609129846096039/0,16516099870204926
6,086864471435547/1,160549521446228/1/0,2511506676673889/0,32277533411979675/0,2609129846096039/0,16516099870204926
6,086864471435547/1,1555067300796509/1/0,2511506676673889/0,32277533411979675/0,2609129846096039/0,16516099870204926
6,086864471435547/1,160549521446228/1/0,2511506676673889/0,32277533411979675/0,2609129846096039/0,16516099870204926
6,086864471435547/1,159829020500183/1/0,2511506676673889/0,32277533411979675/0,2609129846096039/0,16516099870204926
6,086864471435547/1,1699146032333374/1/0,2511506676673889/0,32277533411979675/0,2609129846096039/0,16516099870204926
6,086864471435547/1,1706349849700928/1/0,2511506676673889/0,32277533411979675/0,2609129846096039/0,16516099870204926
6,086864471435547/1,1648718118667603/1/0,2511506676673889/0,32277533411979675/0,2609129846096039/0,16516099870204926
6,086864471435547/1,157667875289917/1/0,2511506676673889/0,32277533411979675/0,2609129846096039/0,16516099870204926
6,086864471435547/1,1655921936035156/1/0,2511506676673889/0,32277533411979675/0,2609129846096039/0,16516099870204926
6,086864471435547/1,1727961301803589/1/0,2511506676673889/0,32277533411979675/0,2609129846096039/0,16516099870204926
6,086864471435547/1,1727961301803589/1/0,2511506676673889/0,32277533411979675/0,2609129846096039/0,16516099870204926
6,086864471435547/1,1641514301300049/1/0,2511506676673889/0,32277533411979675/0,2609129846096039/0,16516099870204926
6,086864471435547/1,159829020500183/1/0,2511506676673889/0,32277533411979675/0,2609129846096039/0,16516099870204926
6,086864471435547/1,1583882570266724/1/0,2511506676673889/0,32277533411979675/0,2609129846096039/0,16516099870204926
6,086864471435547/1,157667875289917/1/0,2511506676673889/0,32277533411979675/0,2609129846096039/0,16516099870204926
6,086864471435547/1,1634310483932495/1/0,2511506676673889/0,32277533411979675/0,2609129846096039/0,16516099870204926
6,086864471435547/1,1713553667068481/1/0,2511506676673889/0,32277533411979675/0,2609129846096039/0,16516099870204926
6,086864471435547/1,1691941022872925/1/0,2511506676673889/0,32277533411979675/0,2609129846096039/0,16516099870204926
6,086864471435547/1,1720757484436035/1/0,2511506676673889/0,32277533411979675/0,2609129846096039/0,16516099870204926
6,086864471435547/1,1641514301300049/1/0,2511506676673889/0,32277533411979675/0,2609129846096039/0,16516099870204926
6,086864471435547/1,1619902849197388/1/0,2511506676673889/0,32277533411979675/0,2609129846096039/0,16516099870204926
6,086864471435547/1,1540659666061401/1/0,2511506676673889/0,32277533411979675/0,2609129846096039/0,16516099870204926
6,086864471435547/1,1569474935531616/1/0,2511506676673889/0,32277533411979675/0,2609129846096039/0,16516099870204926
6,086864471435547/1,1583882570266724/1/0,2511506676673889/0,32277533411979675/0,2609129846096039/0,16516099870204926
6,086864471435547/1,1634310483932495/1/0,2511506676673889/0,32277533411979675/0,2609129846096039/0,16516099870204926
6,086864471435547/1,1526252031326294/1/0,2511506676673889/0,32277533411979675/0,2609129846096039/0,16516099870204926
6,086864471435547/1,1627106666564941/1/0,2511506676673889/0,32277533411979675/0,2609129846096039/0,16516099870204926
6,086864471435547/1,174957275390625/1/0,2511506676673889/0,32277533411979675/0,2609129846096039/0,16516099870204926
6,086864471435547/1,1720757484436035/1/0,2511506676673889/0,32277533411979675/0,2609129846096039/0,16516099870204926
6,086864471435547/1,166312575340271/1/0,2511506676673889/0,32277533411979675/0,2609129846096039/0,16516099870204926
6,086864471435547/1,1713553667068481/1/0,2511506676673889/0,32277533411979675/0,2609129846096039/0,16516099870204926
6,086864471435547/1,1655921936035156/1/0,2511506676673889/0,32277533411979675/0,2609129846096039/0,16516099870204926
6,086864471435547/1,160549521446228/1/0,2511506676673889/0,32277533411979675/0,2609129846096039/0,16516099870204926
6,086864471435547/1,1627106666564941/1/0,2511506676673889/0,32277533411979675/0,2609129846096039/0,16516099870204926
6,086864471435547/1,1526252031326294/1/0,2511506676673889/0,32277533411979675/0,2609129846096039/0,16516099870204926
6,086864471435547/1,1483027935028076/1/0,2511506676673889/0,32277533411979675/0,2609129846096039/0,16516099870204926
6,086864471435547/1,1526252031326294/1/0,2511506676673889/0,32277533411979675/0,2609129846096039/0,16516099870204926
6,086864471435547/1,1713553667068481/1/0,2511506676673889/0,32277533411979675/0,2609129846096039/0,16516099870204926
6,086864471435547/1,1533455848693848/1/0,2511506676673889/0,32277533411979675/0,2609129846096039/0,16516099870204926
6,086864471435547/1,1612699031829834/1/0,2511506676673889/0,32277533411979675/0,2609129846096039/0,16516099870204926
6,086864471435547/1,159829020500183/1/0,2511506676673889/0,32277533411979675/0,2609129846096039/0,16516099870204926
6,086864471435547/1,1504640579223633/1/0,2511506676673889/0,32277533411979675/0,2609129846096039/0,16516099870204926
6,086864471435547/1,1562271118164062/1/0,2511506676673889/0,32277533411979675/0,2609129846096039/0,16516099870204926
6,086864471435547/1,1583882570266724/1/0,2511506676673889/0,32277533411979675/0,2609129846096039/0,16516099870204926
6,086864471435547/1,1533455848693848/1/0,2511506676673889/0,32277533411979675/0,2609129846096039/0,16516099870204926
6,086864471435547/1,1396580934524536/1/0,2511506676673889/0,32277533411979675/0,2609129846096039/0,16516099870204926
6,086864471435547/1,1526252031326294/1/0,2511506676673889/0,32277533411979675/0,2609129846096039/0,16516099870204926
6,086864471435547/1,1634310483932495/1/0,2511506676673889/0,32277533411979675/0,2609129846096039/0,16516099870204926
6,086864471435547/1,1511844396591187/1/0,2511506676673889/0,32277533411979675/0,2609129846096039/0,16516099870204926
6,086864471435547/1,1591086387634277/1/0,2511506676673889/0,32277533411979675/0,2609129846096039/0,16516099870204926
6,086864471435547/1,1720757484436035/1/0,2511506676673889/0,32277533411979675/0,2609129846096039/0,16516099870204926
6,086864471435547/1,1454212665557861/1/0,2511506676673889/0,32277533411979675/0,2609129846096039/0,16516099870204926
6,086864471435547/1,1468620300292969/1/0,2511506676673889/0,32277533411979675/0,2609129846096039/0,16516099870204926
6,086864471435547/1,1583882570266724/1/0,2511506676673889/0,32277533411979675/0,2609129846096039/0,16516099870204926
6,086864471435547/1,160549521446228/1/0,2511506676673889/0,32277533411979675/0,2609129846096039/0,16516099870204926
6,086864471435547/1,1619902849197388/1/0,2511506676673889/0,32277533411979675/0,2609129846096039/0,16516099870204926
6,086864471435547/1,1792796850204468/1/0,2511506676673889/0,32277533411979675/0,2609129846096039/0,16516099870204926
6,086864471435547/1,1670329570770264/1/0,2511506676673889/0,32277533411979675/0,2609129846096039/0,16516099870204926
6,086864471435547/1,1727961301803589/1/0,2511506676673889/0,32277533411979675/0,2609129846096039/0,16516099870204926
6,086864471435547/1,1735165119171143/1/0,2511506676673889/0,32277533411979675/0,2609129846096039/0,16516099870204926
6,086864471435547/1,174957275390625/1/0,2511506676673889/0,32277533411979675/0,2609129846096039/0,16516099870204926
6,086864471435547/1,160549521446228/1/0,2511506676673889/0,32277533411979675/0,2609129846096039/0,16516099870204926
6,086864471435547/1,1886446475982666/1/0,2511506676673889/0,32277533411979675/0,2609129846096039/0,16516099870204926
6,086864471435547/1,174957275390625/1/0,2511506676673889/0,32277533411979675/0,2609129846096039/0,16516099870204926
6,086864471435547/1,159829020500183/1/0,2511506676673889/0,32277533411979675/0,2609129846096039/0,16516099870204926
6,086864471435547/1,1677533388137817/1/0,2511506676673889/0,32277533411979675/0,2609129846096039/0,16516099870204926
6,086864471435547/1,1727961301803589/1/0,2511506676673889/0,32277533411979675/0,2609129846096039/0,16516099870204926
6,086864471435547/1,1591086387634277/1/0,2511506676673889/0,32277533411979675/0,2609129846096039/0,16516099870204926
6,086864471435547/1,1583882570266724/1/0,2511506676673889/0,32277533411979675/0,2609129846096039/0,16516099870204926
6,086864471435547/1,159829020500183/1/0,2511506676673889/0,32277533411979675/0,2609129846096039/0,16516099870204926
6,086864471435547/1,149023175239563/1/0,2511506676673889/0,32277533411979675/0,2609129846096039/0,16516099870204926
6,086864471435547/1,1454212665557861/1/0,2511506676673889/0,32277533411979675/0,2609129846096039/0,16516099870204926
6,086864471435547/1,1619902849197388/1/0,2511506676673889/0,32277533411979675/0,2609129846096039/0,16516099870204926
6,086864471435547/1,1691941022872925/1/0,2511506676673889/0,32277533411979675/0,2609129846096039/0,16516099870204926
6,086864471435547/1,160549521446228/1/0,2511506676673889/0,32277533411979675/0,2609129846096039/0,16516099870204926
6,086864471435547/1,168473720550537/1/0,2511506676673889/0,32277533411979675/0,2609129846096039/0,16516099870204926
6,086864471435547/1,1504640579223633/1/0,2511506676673889/0,32277533411979675/0,2609129846096039/0,16516099870204926
6,086864471435547/1,141098976135254/1/0,2511506676673889/0,32277533411979675/0,2609129846096039/0,16516099870204926
6,086864471435547/1,1533455848693848/1/0,2511506676673889/0,32277533411979675/0,2609129846096039/0,16516099870204926
6,086864471435547/1,1591086387634277/1/0,2511506676673889/0,32277533411979675/0,2609129846096039/0,16516099870204926
6,086864471435547/1,1533455848693848/1/0,2511506676673889/0,32277533411979675/0,2609129846096039/0,16516099870204926
6,086864471435547/1,166312575340271/1/0,2511506676673889/0,32277533411979675/0,2609129846096039/0,16516099870204926
6,086864471435547/1,1655921936035156/1/0,2511506676673889/0,32277533411979675/0,2609129846096039/0,16516099870204926
6,086864471435547/1,1591086387634277/1/0,2511506676673889/0,32277533411979675/0,2609129846096039/0,16516099870204926
6,086864471435547/1,1828815937042236/1/0,2511506676673889/0,32277533411979675/0,2609129846096039/0,16516099870204926
6,086864471435547/1,181440830230713/1/0,2511506676673889/0,32277533411979675/0,2609129846096039/0,16516099870204926
6,086864471435547/1,166312575340271/1/0,2511506676673889/0,32277533411979675/0,2609129846096039/0,16516099870204926
6,086864471435547/1,1699146032333374/1/0,2511506676673889/0,32277533411979675/0,2609129846096039/0,16516099870204926
6,086864471435547/1,1778388023376465/1/0,2511506676673889/0,32277533411979675/0,2609129846096039/0,16516099870204926
6,086864471435547/1,1742368936538696/1/0,2511506676673889/0,32277533411979675/0,2609129846096039/0,16516099870204926
6,086864471435547/1,1699146032333374/1/0,2511506676673889/0,32277533411979675/0,2609129846096039/0,16516099870204926
6,086864471435547/1,1864835023880005/1/0,2511506676673889/0,32277533411979675/0,2609129846096039/0,16516099870204926
6,086864471435547/1,1670329570770264/1/0,2511506676673889/0,32277533411979675/0,2609129846096039/0,16516099870204926
6,086864471435547/1,1713553667068481/1/0,2511506676673889/0,32277533411979675/0,2609129846096039/0,16516099870204926
6,086864471435547/1,1843223571777344/1/0,2511506676673889/0,32277533411979675/0,2609129846096039/0,16516099870204926
6,086864471435547/1,1800000667572021/1/0,2511506676673889/0,32277533411979675/0,2609129846096039/0,16516099870204926
6,086864471435547/1,1886446475982666/1/0,2511506676673889/0,32277533411979675/0,2609129846096039/0,16516099870204926
6,086864471435547/1,1677533388137817/1/0,2511506676673889/0,32277533411979675/0,2609129846096039/0,16516099870204926
6,086864471435547/1,1699146032333374/1/0,2511506676673889/0,32277533411979675/0,2609129846096039/0,16516099870204926
6,086864471435547/1,1763980388641357/1/0,2511506676673889/0,32277533411979675/0,2609129846096039/0,16516099870204926
6,086864471435547/1,1785591840744019/1/0,2511506676673889/0,32277533411979675/0,2609129846096039/0,16516099870204926
6,086864471435547/1,1727961301803589/1/0,2511506676673889/0,32277533411979675/0,2609129846096039/0,16516099870204926
6,086864471435547/1,1713553667068481/1/0,2511506676673889/0,32277533411979675/0,2609129846096039/0,16516099870204926
6,086864471435547/1,1742368936538696/1/0,2511506676673889/0,32277533411979675/0,2609129846096039/0,16516099870204926
6,086864471435547/1,1763980388641357/1/0,2511506676673889/0,32277533411979675/0,2609129846096039/0,16516099870204926
6,086864471435547/1,1778388023376465/1/0,2511506676673889/0,32277533411979675/0,2609129846096039/0,16516099870204926
6,086864471435547/1,1828815937042236/1/0,2511506676673889/0,32277533411979675/0,2609129846096039/0,16516099870204926
6,086864471435547/1,1735165119171143/1/0,2511506676673889/0,32277533411979675/0,2609129846096039/0,16516099870204926
6,086864471435547/1,1670329570770264/1/0,2511506676673889/0,32277533411979675/0,2609129846096039/0,16516099870204926
6,086864471435547/1,1562271118164062/1/0,2511506676673889/0,32277533411979675/0,2609129846096039/0,16516099870204926
6,086864471435547/1,1641514301300049/1/0,2511506676673889/0,32277533411979675/0,2609129846096039/0,16516099870204926
6,086864471435547/1,1526252031326294/1/0,2511506676673889/0,32277533411979675/0,2609129846096039/0,16516099870204926
6,086864471435547/1,149023175239563/1/0,2511506676673889/0,32277533411979675/0,2609129846096039/0,16516099870204926
6,086864471435547/1,1641514301300049/1/0,2511506676673889/0,32277533411979675/0,2609129846096039/0,16516099870204926
6,086864471435547/1,1677533388137817/1/0,2511506676673889/0,32277533411979675/0,2609129846096039/0,16516099870204926
6,086864471435547/1,168473720550537/1/0,2511506676673889/0,32277533411979675/0,2609129846096039/0,16516099870204926
6,086864471435547/1,174957275390625/1/0,2511506676673889/0,32277533411979675/0,2609129846096039/0,16516099870204926
6,086864471435547/1,1850427389144897/1/0,2511506676673889/0,32277533411979675/0,2609129846096039/0,16516099870204926
6,086864471435547/1,159829020500183/1/0,2511506676673889/0,32277533411979675/0,2609129846096039/0,16516099870204926
6,086864471435547/1,1634310483932495/1/0,2511506676673889/0,32277533411979675/0,2609129846096039/0,16516099870204926
6,086864471435547/1,1850427389144897/1/0,2511506676673889/0,32277533411979675/0,2609129846096039/0,16516099870204926
6,086864471435547/1,181440830230713/1/0,2511506676673889/0,32277533411979675/0,2609129846096039/0,16516099870204926
6,086864471435547/1,1634310483932495/1/0,2511506676673889/0,32277533411979675/0,2609129846096039/0,16516099870204926
6,086864471435547/1,1612699031829834/1/0,2511506676673889/0,32277533411979675/0,2609129846096039/0,16516099870204926
6,086864471435547/1,1461416482925415/1/0,2511506676673889/0,32277533411979675/0,2609129846096039/0,16516099870204926
6,086864471435547/1,1418193578720093/1/0,2511506676673889/0,32277533411979675/0,2609129846096039/0,16516099870204926
6,086864471435547/1,1533455848693848/1/0,2511506676673889/0,32277533411979675/0,2609129846096039/0,16516099870204926
6,086864471435547/1,1555067300796509/1/0,2511506676673889/0,32277533411979675/0,2609129846096039/0,16516099870204926
6,086864471435547/1,1641514301300049/1/0,2511506676673889/0,32277533411979675/0,2609129846096039/0,16516099870204926
6,086864471435547/1,1843223571777344/1/0,2511506676673889/0,32277533411979675/0,2609129846096039/0,16516099870204926
6,086864471435547/1,1800000667572021/1/0,2511506676673889/0,32277533411979675/0,2609129846096039/0,16516099870204926
6,086864471435547/1,1699146032333374/1/0,2511506676673889/0,32277533411979675/0,2609129846096039/0,16516099870204926
6,086864471435547/1,1713553667068481/1/0,2511506676673889/0,32277533411979675/0,2609129846096039/0,16516099870204926
6,086864471435547/1,168473720550537/1/0,2511506676673889/0,32277533411979675/0,2609129846096039/0,16516099870204926
6,086864471435547/1,141098976135254/1/0,2511506676673889/0,32277533411979675/0,2609129846096039/0,16516099870204926
6,086864471435547/1,1483027935028076/1/0,2511506676673889/0,32277533411979675/0,2609129846096039/0,16516099870204926
6,086864471435547/1,1691941022872925/1/0,2511506676673889/0,32277533411979675/0,2609129846096039/0,16516099870204926
6,086864471435547/1,1504640579223633/1/0,2511506676673889/0,32277533411979675/0,2609129846096039/0,16516099870204926
6,086864471435547/1,1526252031326294/1/0,2511506676673889/0,32277533411979675/0,2609129846096039/0,16516099870204926
6,086864471435547/1,1583882570266724/1/0,2511506676673889/0,32277533411979675/0,2609129846096039/0,16516099870204926
6,086864471435547/1,157667875289917/1/0,2511506676673889/0,32277533411979675/0,2609129846096039/0,16516099870204926
6,086864471435547/1,1526252031326294/1/0,2511506676673889/0,32277533411979675/0,2609129846096039/0,16516099870204926
6,086864471435547/1,1547863483428955/1/0,2511506676673889/0,32277533411979675/0,2609129846096039/0,16516099870204926
6,086864471435547/1,1562271118164062/1/0,2511506676673889/0,32277533411979675/0,2609129846096039/0,16516099870204926
6,086864471435547/1,1504640579223633/1/0,2511506676673889/0,32277533411979675/0,2609129846096039/0,16516099870204926
6,086864471435547/1,1533455848693848/1/0,2511506676673889/0,32277533411979675/0,2609129846096039/0,16516099870204926
6,086864471435547/1,1655921936035156/1/0,2511506676673889/0,32277533411979675/0,2609129846096039/0,16516099870204926
6,086864471435547/1,1720757484436035/1/0,2511506676673889/0,32277533411979675/0,2609129846096039/0,16516099870204926
6,086864471435547/1,1691941022872925/1/0,2511506676673889/0,32277533411979675/0,2609129846096039/0,16516099870204926
6,086864471435547/1,1699146032333374/1/0,2511506676673889/0,32277533411979675/0,2609129846096039/0,16516099870204926
6,086864471435547/1,1634310483932495/1/0,2511506676673889/0,32277533411979675/0,2609129846096039/0,16516099870204926
6,086864471435547/1,1547863483428955/1/0,2511506676673889/0,32277533411979675/0,2609129846096039/0,16516099870204926
6,086864471435547/1,166312575340271/1/0,2511506676673889/0,32277533411979675/0,2609129846096039/0,16516099870204926
6,086864471435547/1,1612699031829834/1/0,2511506676673889/0,32277533411979675/0,2609129846096039/0,16516099870204926
6,086864471435547/1,1655921936035156/1/0,2511506676673889/0,32277533411979675/0,2609129846096039/0,16516099870204926
6,086864471435547/1,1720757484436035/1/0,2511506676673889/0,32277533411979675/0,2609129846096039/0,16516099870204926
6,086864471435547/1,166312575340271/1/0,2511506676673889/0,32277533411979675/0,2609129846096039/0,16516099870204926
6,086864471435547/1,1562271118164062/1/0,2511506676673889/0,32277533411979675/0,2609129846096039/0,16516099870204926
6,086864471435547/1,168473720550537/1/0,2511506676673889/0,32277533411979675/0,2609129846096039/0,16516099870204926
6,086864471435547/1,1792796850204468/1/0,2511506676673889/0,32277533411979675/0,2609129846096039/0,16516099870204926
6,086864471435547/1,1641514301300049/1/0,2511506676673889/0,32277533411979675/0,2609129846096039/0,16516099870204926
6,086864471435547/1,1872038841247559/1/0,2511506676673889/0,32277533411979675/0,2609129846096039/0,16516099870204926
6,086864471435547/1,1886446475982666/1/0,2511506676673889/0,32277533411979675/0,2609129846096039/0,16516099870204926
6,086864471435547/1,1735165119171143/1/0,2511506676673889/0,32277533411979675/0,2609129846096039/0,16516099870204926
6,086864471435547/1,1807204484939575/1/0,2511506676673889/0,32277533411979675/0,2609129846096039/0,16516099870204926
6,086864471435547/1,1828815937042236/1/0,2511506676673889/0,32277533411979675/0,2609129846096039/0,16516099870204926
6,086864471435547/1,1763980388641357/1/0,2511506676673889/0,32277533411979675/0,2609129846096039/0,16516099870204926
6,086864471435547/1,1756776571273804/1/0,2511506676673889/0,32277533411979675/0,2609129846096039/0,16516099870204926
6,086864471435547/1,1886446475982666/1/0,2511506676673889/0,32277533411979675/0,2609129846096039/0,16516099870204926
6,086864471435547/1,1735165119171143/1/0,2511506676673889/0,32277533411979675/0,2609129846096039/0,16516099870204926
6,086864471435547/1,1641514301300049/1/0,2511506676673889/0,32277533411979675/0,2609129846096039/0,16516099870204926
6,086864471435547/1,1670329570770264/1/0,2511506676673889/0,32277533411979675/0,2609129846096039/0,16516099870204926
6,086864471435547/1,1720757484436035/1/0,2511506676673889/0,32277533411979675/0,2609129846096039/0,16516099870204926
6,086864471435547/1,1800000667572021/1/0,2511506676673889/0,32277533411979675/0,2609129846096039/0,16516099870204926
6,086864471435547/1,1857631206512451/1/0,2511506676673889/0,32277533411979675/0,2609129846096039/0,16516099870204926
6,086864471435547/1,1771184206008911/1/0,2511506676673889/0,32277533411979675/0,2609129846096039/0,16516099870204926
6,086864471435547/1,1763980388641357/1/0,2511506676673889/0,32277533411979675/0,2609129846096039/0,16516099870204926
7,278160333633423/1,160549521446228/1/0,27581360936164856/0,37135642766952515/0,18439263105392456/0,16843737661838531
7,278160333633423/1,1756776571273804/1/0,27581360936164856/0,37135642766952515/0,18439263105392456/0,16843737661838531
7,278160333633423/1,1792796850204468/1/0,27581360936164856/0,37135642766952515/0,18439263105392456/0,16843737661838531
7,278160333633423/1,1720757484436035/1/0,27581360936164856/0,37135642766952515/0,18439263105392456/0,16843737661838531
7,278160333633423/1,1706349849700928/1/0,27581360936164856/0,37135642766952515/0,18439263105392456/0,16843737661838531
7,278160333633423/1,1706349849700928/1/0,27581360936164856/0,37135642766952515/0,18439263105392456/0,16843737661838531
7,278160333633423/1,166312575340271/1/0,27581360936164856/0,37135642766952515/0,18439263105392456/0,16843737661838531
7,278160333633423/1,1807204484939575/1/0,27581360936164856/0,37135642766952515/0,18439263105392456/0,16843737661838531
7,278160333633423/1,1843223571777344/1/0,27581360936164856/0,37135642766952515/0,18439263105392456/0,16843737661838531
7,278160333633423/1,1720757484436035/1/0,27581360936164856/0,37135642766952515/0,18439263105392456/0,16843737661838531
7,278160333633423/1,168473720550537/1/0,27581360936164856/0,37135642766952515/0,18439263105392456/0,16843737661838531
7,278160333633423/1,1619902849197388/1/0,27581360936164856/0,37135642766952515/0,18439263105392456/0,16843737661838531
7,278160333633423/1,1612699031829834/1/0,27581360936164856/0,37135642766952515/0,18439263105392456/0,16843737661838531
7,278160333633423/1,160549521446228/1/0,27581360936164856/0,37135642766952515/0,18439263105392456/0,16843737661838531
7,278160333633423/1,1641514301300049/1/0,27581360936164856/0,37135642766952515/0,18439263105392456/0,16843737661838531
7,278160333633423/1,1713553667068481/1/0,27581360936164856/0,37135642766952515/0,18439263105392456/0,16843737661838531
7,278160333633423/1,1699146032333374/1/0,27581360936164856/0,37135642766952515/0,18439263105392456/0,16843737661838531
7,278160333633423/1,1627106666564941/1/0,27581360936164856/0,37135642766952515/0,18439263105392456/0,16843737661838531
7,278160333633423/1,1497435569763184/1/0,27581360936164856/0,37135642766952515/0,18439263105392456/0,16843737661838531
7,278160333633423/1,174957275390625/1/0,27581360936164856/0,37135642766952515/0,18439263105392456/0,16843737661838531
7,278160333633423/1,1785591840744019/1/0,27581360936164856/0,37135642766952515/0,18439263105392456/0,16843737661838531
7,278160333633423/1,1655921936035156/1/0,27581360936164856/0,37135642766952515/0,18439263105392456/0,16843737661838531
7,278160333633423/1,1727961301803589/1/0,27581360936164856/0,37135642766952515/0,18439263105392456/0,16843737661838531
7,278160333633423/1,1612699031829834/1/0,27581360936164856/0,37135642766952515/0,18439263105392456/0,16843737661838531
7,278160333633423/1,1583882570266724/1/0,27581360936164856/0,37135642766952515/0,18439263105392456/0,16843737661838531
7,278160333633423/1,168473720550537/1/0,27581360936164856/0,37135642766952515/0,18439263105392456/0,16843737661838531
7,278160333633423/1,174957275390625/1/0,27581360936164856/0,37135642766952515/0,18439263105392456/0,16843737661838531
7,278160333633423/1,160549521446228/1/0,27581360936164856/0,37135642766952515/0,18439263105392456/0,16843737661838531
7,278160333633423/1,157667875289917/1/0,27581360936164856/0,37135642766952515/0,18439263105392456/0,16843737661838531
7,278160333633423/1,1627106666564941/1/0,27581360936164856/0,37135642766952515/0,18439263105392456/0,16843737661838531
7,278160333633423/1,160549521446228/1/0,27581360936164856/0,37135642766952515/0,18439263105392456/0,16843737661838531
7,278160333633423/1,1533455848693848/1/0,27581360936164856/0,37135642766952515/0,18439263105392456/0,16843737661838531
7,278160333633423/1,1619902849197388/1/0,27581360936164856/0,37135642766952515/0,18439263105392456/0,16843737661838531
