#Digilent WaveForms Data Logger
#Device Name: DiscoveryStudio
#Serial Number: SN:210384B1931D
#Date Time: 2025-04-29 14:55:47.401

Time (s),C2 (V)
20,1.65823719284838
19.9998,1.654558881124963
19.9996,1.654558881124963
19.9994,1.654558881124963
19.9992,1.654558881124963
19.999,1.650880569401546
19.9988,1.650880569401546
19.9986,1.650880569401546
19.9984,1.650880569401546
19.9982,1.647202257678129
19.998,1.647202257678129
19.9978,1.647202257678129
19.9976,1.647202257678129
19.9974,1.647202257678129
19.9972,1.647202257678129
19.997,1.643523945954712
19.9968,1.643523945954712
19.9966,1.643523945954712
19.9964,1.643523945954712
19.9962,1.643523945954712
19.996,1.643523945954712
19.9958,1.639845634231295
19.9956,1.639845634231295
19.9954,1.639845634231295
19.9952,1.639845634231295
19.995,1.639845634231295
19.9948,1.636167322507877
19.9946,1.636167322507877
19.9944,1.636167322507877
19.9942,1.636167322507877
19.994,1.63248901078446
19.9938,1.63248901078446
19.9936,1.63248901078446
19.9934,1.63248901078446
19.9932,1.628810699061043
19.993,1.628810699061043
19.9928,1.628810699061043
19.9926,1.628810699061043
19.9924,1.628810699061043
19.9922,1.628810699061043
19.992,1.628810699061043
19.9918,1.628810699061043
19.9916,1.63248901078446
19.9914,1.63248901078446
19.9912,1.63248901078446
19.991,1.636167322507877
19.9908,1.636167322507877
19.9906,1.636167322507877
19.9904,1.636167322507877
19.9902,1.639845634231295
19.99,1.639845634231295
19.9898,1.639845634231295
19.9896,1.639845634231295
19.9894,1.643523945954712
19.9892,1.643523945954712
19.989,1.643523945954712
19.9888,1.643523945954712
19.9886,1.643523945954712
19.9884,1.643523945954712
19.9882,1.643523945954712
19.988,1.647202257678129
19.9878,1.643523945954712
19.9876,1.647202257678129
19.9874,1.647202257678129
19.9872,1.643523945954712
19.987,1.647202257678129
19.9868,1.647202257678129
19.9866,1.647202257678129
19.9864,1.647202257678129
19.9862,1.647202257678129
19.986,1.647202257678129
19.9858,1.647202257678129
19.9856,1.647202257678129
19.9854,1.647202257678129
19.9852,1.650880569401546
19.985,1.647202257678129
19.9848,1.647202257678129
19.9846,1.650880569401546
19.9844,1.650880569401546
19.9842,1.650880569401546
19.984,1.650880569401546
19.9838,1.654558881124963
19.9836,1.654558881124963
19.9834,1.654558881124963
19.9832,1.654558881124963
19.983,1.654558881124963
19.9828,1.654558881124963
19.9826,1.654558881124963
19.9824,1.654558881124963
19.9822,1.654558881124963
19.982,1.654558881124963
19.9818,1.654558881124963
19.9816,1.654558881124963
19.9814,1.650880569401546
19.9812,1.650880569401546
19.981,1.650880569401546
19.9808,1.650880569401546
19.9806,1.650880569401546
19.9804,1.650880569401546
19.9802,1.650880569401546
19.98,1.647202257678129
19.9798,1.647202257678129
19.9796,1.647202257678129
19.9794,1.647202257678129
19.9792,1.643523945954712
19.979,1.643523945954712
19.9788,1.643523945954712
19.9786,1.643523945954712
19.9784,1.643523945954712
19.9782,1.639845634231295
19.978,1.639845634231295
19.9778,1.639845634231295
19.9776,1.639845634231295
19.9774,1.639845634231295
19.9772,1.639845634231295
19.977,1.639845634231295
19.9768,1.636167322507877
19.9766,1.636167322507877
19.9764,1.639845634231295
19.9762,1.636167322507877
19.976,1.636167322507877
19.9758,1.636167322507877
19.9756,1.636167322507877
19.9754,1.636167322507877
19.9752,1.636167322507877
19.975,1.636167322507877
19.9748,1.636167322507877
19.9746,1.639845634231295
19.9744,1.639845634231295
19.9742,1.639845634231295
19.974,1.639845634231295
19.9738,1.639845634231295
19.9736,1.643523945954712
19.9734,1.643523945954712
19.9732,1.643523945954712
19.973,1.643523945954712
19.9728,1.643523945954712
19.9726,1.643523945954712
19.9724,1.643523945954712
19.9722,1.643523945954712
19.972,1.647202257678129
19.9718,1.647202257678129
19.9716,1.647202257678129
19.9714,1.647202257678129
19.9712,1.647202257678129
19.971,1.647202257678129
19.9708,1.647202257678129
19.9706,1.647202257678129
19.9704,1.643523945954712
19.9702,1.647202257678129
19.97,1.643523945954712
19.9698,1.643523945954712
19.9696,1.643523945954712
19.9694,1.643523945954712
19.9692,1.643523945954712
19.969,1.643523945954712
19.9688,1.643523945954712
19.9686,1.643523945954712
19.9684,1.643523945954712
19.9682,1.643523945954712
19.968,1.643523945954712
19.9678,1.643523945954712
19.9676,1.643523945954712
19.9674,1.643523945954712
19.9672,1.643523945954712
19.967,1.643523945954712
19.9668,1.643523945954712
19.9666,1.643523945954712
19.9664,1.643523945954712
19.9662,1.643523945954712
19.966,1.643523945954712
19.9658,1.643523945954712
19.9656,1.643523945954712
19.9654,1.643523945954712
19.9652,1.647202257678129
19.965,1.647202257678129
19.9648,1.647202257678129
19.9646,1.647202257678129
19.9644,1.647202257678129
19.9642,1.647202257678129
19.964,1.650880569401546
19.9638,1.647202257678129
19.9636,1.650880569401546
19.9634,1.647202257678129
19.9632,1.647202257678129
19.963,1.647202257678129
19.9628,1.647202257678129
19.9626,1.647202257678129
19.9624,1.647202257678129
19.9622,1.647202257678129
19.962,1.647202257678129
19.9618,1.647202257678129
19.9616,1.647202257678129
19.9614,1.647202257678129
19.9612,1.647202257678129
19.961,1.647202257678129
19.9608,1.647202257678129
19.9606,1.647202257678129
19.9604,1.647202257678129
19.9602,1.647202257678129
19.96,1.647202257678129
19.9598,1.647202257678129
19.9596,1.647202257678129
19.9594,1.647202257678129
19.9592,1.647202257678129
19.959,1.650880569401546
19.9588,1.647202257678129
19.9586,1.647202257678129
19.9584,1.647202257678129
19.9582,1.650880569401546
19.958,1.650880569401546
19.9578,1.647202257678129
19.9576,1.647202257678129
19.9574,1.647202257678129
19.9572,1.647202257678129
19.957,1.647202257678129
19.9568,1.647202257678129
19.9566,1.647202257678129
19.9564,1.647202257678129
19.9562,1.647202257678129
19.956,1.647202257678129
19.9558,1.647202257678129
19.9556,1.647202257678129
19.9554,1.647202257678129
19.9552,1.647202257678129
19.955,1.650880569401546
19.9548,1.650880569401546
19.9546,1.650880569401546
19.9544,1.650880569401546
19.9542,1.650880569401546
19.954,1.650880569401546
19.9538,1.650880569401546
19.9536,1.650880569401546
19.9534,1.650880569401546
19.9532,1.650880569401546
19.953,1.650880569401546
19.9528,1.654558881124963
19.9526,1.650880569401546
19.9524,1.650880569401546
19.9522,1.654558881124963
19.952,1.650880569401546
19.9518,1.650880569401546
19.9516,1.654558881124963
19.9514,1.654558881124963
19.9512,1.654558881124963
19.951,1.654558881124963
19.9508,1.654558881124963
19.9506,1.654558881124963
19.9504,1.654558881124963
19.9502,1.654558881124963
19.95,1.654558881124963
19.9498,1.654558881124963
19.9496,1.65823719284838
19.9494,1.65823719284838
19.9492,1.65823719284838
19.949,1.661915504571797
19.9488,1.661915504571797
19.9486,1.661915504571797
19.9484,1.661915504571797
19.9482,1.665593816295214
19.948,1.665593816295214
19.9478,1.665593816295214
19.9476,1.665593816295214
19.9474,1.665593816295214
19.9472,1.665593816295214
19.947,1.669272128018631
19.9468,1.665593816295214
19.9466,1.669272128018631
19.9464,1.669272128018631
19.9462,1.669272128018631
19.946,1.669272128018631
19.9458,1.669272128018631
19.9456,1.669272128018631
19.9454,1.669272128018631
19.9452,1.669272128018631
19.945,1.665593816295214
19.9448,1.665593816295214
19.9446,1.665593816295214
19.9444,1.669272128018631
19.9442,1.665593816295214
19.944,1.665593816295214
19.9438,1.665593816295214
19.9436,1.665593816295214
19.9434,1.669272128018631
19.9432,1.665593816295214
19.943,1.665593816295214
19.9428,1.669272128018631
19.9426,1.665593816295214
19.9424,1.669272128018631
19.9422,1.669272128018631
19.942,1.669272128018631
19.9418,1.669272128018631
19.9416,1.669272128018631
19.9414,1.669272128018631
19.9412,1.669272128018631
19.941,1.669272128018631
19.9408,1.665593816295214
19.9406,1.665593816295214
19.9404,1.661915504571797
19.9402,1.661915504571797
19.94,1.65823719284838
19.9398,1.65823719284838
19.9396,1.65823719284838
19.9394,1.654558881124963
19.9392,1.650880569401546
19.939,1.650880569401546
19.9388,1.650880569401546
19.9386,1.650880569401546
19.9384,1.647202257678129
19.9382,1.647202257678129
19.938,1.647202257678129
19.9378,1.643523945954712
19.9376,1.643523945954712
19.9374,1.643523945954712
19.9372,1.643523945954712
19.937,1.643523945954712
19.9368,1.643523945954712
19.9366,1.639845634231295
19.9364,1.639845634231295
19.9362,1.639845634231295
19.936,1.643523945954712
19.9358,1.639845634231295
19.9356,1.639845634231295
19.9354,1.639845634231295
19.9352,1.639845634231295
19.935,1.636167322507877
19.9348,1.639845634231295
19.9346,1.639845634231295
19.9344,1.639845634231295
19.9342,1.639845634231295
19.934,1.639845634231295
19.9338,1.639845634231295
19.9336,1.639845634231295
19.9334,1.639845634231295
19.9332,1.643523945954712
19.933,1.643523945954712
19.9328,1.643523945954712
19.9326,1.647202257678129
19.9324,1.647202257678129
19.9322,1.650880569401546
19.932,1.650880569401546
19.9318,1.650880569401546
19.9316,1.650880569401546
19.9314,1.654558881124963
19.9312,1.654558881124963
19.931,1.65823719284838
19.9308,1.65823719284838
19.9306,1.65823719284838
19.9304,1.65823719284838
19.9302,1.661915504571797
19.93,1.661915504571797
19.9298,1.661915504571797
19.9296,1.661915504571797
19.9294,1.665593816295214
19.9292,1.665593816295214
19.929,1.665593816295214
19.9288,1.665593816295214
19.9286,1.665593816295214
19.9284,1.665593816295214
19.9282,1.665593816295214
19.928,1.665593816295214
19.9278,1.665593816295214
19.9276,1.665593816295214
19.9274,1.665593816295214
19.9272,1.661915504571797
19.927,1.661915504571797
19.9268,1.661915504571797
19.9266,1.661915504571797
19.9264,1.661915504571797
19.9262,1.661915504571797
19.926,1.65823719284838
19.9258,1.65823719284838
19.9256,1.65823719284838
19.9254,1.65823719284838
19.9252,1.65823719284838
19.925,1.65823719284838
19.9248,1.65823719284838
19.9246,1.654558881124963
19.9244,1.65823719284838
19.9242,1.654558881124963
19.924,1.654558881124963
19.9238,1.654558881124963
19.9236,1.654558881124963
19.9234,1.654558881124963
19.9232,1.654558881124963
19.923,1.654558881124963
19.9228,1.650880569401546
19.9226,1.650880569401546
19.9224,1.650880569401546
19.9222,1.654558881124963
19.922,1.650880569401546
19.9218,1.650880569401546
19.9216,1.650880569401546
19.9214,1.650880569401546
19.9212,1.650880569401546
19.921,1.650880569401546
19.9208,1.650880569401546
19.9206,1.650880569401546
19.9204,1.654558881124963
19.9202,1.654558881124963
19.92,1.654558881124963
19.9198,1.654558881124963
19.9196,1.654558881124963
19.9194,1.654558881124963
19.9192,1.654558881124963
19.919,1.654558881124963
19.9188,1.65823719284838
19.9186,1.65823719284838
19.9184,1.65823719284838
19.9182,1.65823719284838
19.918,1.65823719284838
19.9178,1.65823719284838
19.9176,1.65823719284838
19.9174,1.65823719284838
19.9172,1.661915504571797
19.917,1.661915504571797
19.9168,1.661915504571797
19.9166,1.661915504571797
19.9164,1.661915504571797
19.9162,1.661915504571797
19.916,1.665593816295214
19.9158,1.665593816295214
19.9156,1.665593816295214
19.9154,1.665593816295214
19.9152,1.665593816295214
19.915,1.669272128018631
19.9148,1.669272128018631
19.9146,1.669272128018631
19.9144,1.669272128018631
19.9142,1.669272128018631
19.914,1.669272128018631
19.9138,1.669272128018631
19.9136,1.672950439742048
19.9134,1.672950439742048
19.9132,1.672950439742048
19.913,1.672950439742048
19.9128,1.672950439742048
19.9126,1.672950439742048
19.9124,1.676628751465466
19.9122,1.676628751465466
19.912,1.676628751465466
19.9118,1.676628751465466
19.9116,1.676628751465466
19.9114,1.676628751465466
19.9112,1.676628751465466
19.911,1.676628751465466
19.9108,1.676628751465466
19.9106,1.676628751465466
19.9104,1.680307063188883
19.9102,1.680307063188883
19.91,1.680307063188883
19.9098,1.680307063188883
19.9096,1.6839853749123
19.9094,1.680307063188883
19.9092,1.6839853749123
19.909,1.6839853749123
19.9088,1.6839853749123
19.9086,1.6839853749123
19.9084,1.6839853749123
19.9082,1.6839853749123
19.908,1.6839853749123
19.9078,1.6839853749123
19.9076,1.680307063188883
19.9074,1.680307063188883
19.9072,1.680307063188883
19.907,1.676628751465466
19.9068,1.672950439742048
19.9066,1.672950439742048
19.9064,1.669272128018631
19.9062,1.669272128018631
19.906,1.665593816295214
19.9058,1.661915504571797
19.9056,1.661915504571797
19.9054,1.65823719284838
19.9052,1.65823719284838
19.905,1.654558881124963
19.9048,1.654558881124963
19.9046,1.650880569401546
19.9044,1.650880569401546
19.9042,1.650880569401546
19.904,1.647202257678129
19.9038,1.647202257678129
19.9036,1.647202257678129
19.9034,1.647202257678129
19.9032,1.647202257678129
19.903,1.647202257678129
19.9028,1.647202257678129
19.9026,1.647202257678129
19.9024,1.647202257678129
19.9022,1.647202257678129
19.902,1.643523945954712
19.9018,1.643523945954712
19.9016,1.643523945954712
19.9014,1.643523945954712
19.9012,1.639845634231295
19.901,1.639845634231295
19.9008,1.636167322507877
19.9006,1.636167322507877
19.9004,1.636167322507877
19.9002,1.636167322507877
19.9,1.63248901078446
19.8998,1.63248901078446
19.8996,1.63248901078446
19.8994,1.63248901078446
19.8992,1.63248901078446
19.899,1.636167322507877
19.8988,1.636167322507877
19.8986,1.636167322507877
19.8984,1.63248901078446
19.8982,1.636167322507877
19.898,1.636167322507877
19.8978,1.636167322507877
19.8976,1.636167322507877
19.8974,1.636167322507877
19.8972,1.636167322507877
19.897,1.636167322507877
19.8968,1.636167322507877
19.8966,1.639845634231295
19.8964,1.639845634231295
19.8962,1.639845634231295
19.896,1.639845634231295
19.8958,1.639845634231295
19.8956,1.639845634231295
19.8954,1.639845634231295
19.8952,1.639845634231295
19.895,1.643523945954712
19.8948,1.643523945954712
19.8946,1.643523945954712
19.8944,1.643523945954712
19.8942,1.643523945954712
19.894,1.647202257678129
19.8938,1.647202257678129
19.8936,1.647202257678129
19.8934,1.650880569401546
19.8932,1.650880569401546
19.893,1.650880569401546
19.8928,1.654558881124963
19.8926,1.654558881124963
19.8924,1.654558881124963
19.8922,1.654558881124963
19.892,1.65823719284838
19.8918,1.65823719284838
19.8916,1.661915504571797
19.8914,1.661915504571797
19.8912,1.661915504571797
19.891,1.661915504571797
19.8908,1.661915504571797
19.8906,1.661915504571797
19.8904,1.665593816295214
19.8902,1.665593816295214
19.89,1.665593816295214
19.8898,1.665593816295214
19.8896,1.665593816295214
19.8894,1.665593816295214
19.8892,1.665593816295214
19.889,1.665593816295214
19.8888,1.665593816295214
19.8886,1.665593816295214
19.8884,1.661915504571797
19.8882,1.661915504571797
19.888,1.661915504571797
19.8878,1.661915504571797
19.8876,1.661915504571797
19.8874,1.661915504571797
19.8872,1.65823719284838
19.887,1.661915504571797
19.8868,1.65823719284838
19.8866,1.65823719284838
19.8864,1.65823719284838
19.8862,1.654558881124963
19.886,1.654558881124963
19.8858,1.654558881124963
19.8856,1.654558881124963
19.8854,1.650880569401546
19.8852,1.654558881124963
19.885,1.654558881124963
19.8848,1.650880569401546
19.8846,1.654558881124963
19.8844,1.654558881124963
19.8842,1.654558881124963
19.884,1.654558881124963
19.8838,1.654558881124963
19.8836,1.654558881124963
19.8834,1.654558881124963
19.8832,1.654558881124963
19.883,1.650880569401546
19.8828,1.654558881124963
19.8826,1.650880569401546
19.8824,1.650880569401546
19.8822,1.650880569401546
19.882,1.647202257678129
19.8818,1.647202257678129
19.8816,1.647202257678129
19.8814,1.647202257678129
19.8812,1.647202257678129
19.881,1.647202257678129
19.8808,1.647202257678129
19.8806,1.647202257678129
19.8804,1.647202257678129
19.8802,1.647202257678129
19.88,1.647202257678129
19.8798,1.650880569401546
19.8796,1.650880569401546
19.8794,1.650880569401546
19.8792,1.650880569401546
19.879,1.650880569401546
19.8788,1.654558881124963
19.8786,1.654558881124963
19.8784,1.654558881124963
19.8782,1.654558881124963
19.878,1.654558881124963
19.8778,1.65823719284838
19.8776,1.65823719284838
19.8774,1.65823719284838
19.8772,1.65823719284838
19.877,1.65823719284838
19.8768,1.65823719284838
19.8766,1.65823719284838
19.8764,1.65823719284838
19.8762,1.65823719284838
19.876,1.65823719284838
19.8758,1.65823719284838
19.8756,1.654558881124963
19.8754,1.654558881124963
19.8752,1.654558881124963
19.875,1.654558881124963
19.8748,1.654558881124963
19.8746,1.654558881124963
19.8744,1.654558881124963
19.8742,1.654558881124963
19.874,1.650880569401546
19.8738,1.654558881124963
19.8736,1.654558881124963
19.8734,1.654558881124963
19.8732,1.654558881124963
19.873,1.654558881124963
19.8728,1.65823719284838
19.8726,1.65823719284838
19.8724,1.65823719284838
19.8722,1.65823719284838
19.872,1.65823719284838
19.8718,1.661915504571797
19.8716,1.661915504571797
19.8714,1.661915504571797
19.8712,1.661915504571797
19.871,1.665593816295214
19.8708,1.665593816295214
19.8706,1.665593816295214
19.8704,1.665593816295214
19.8702,1.669272128018631
19.87,1.669272128018631
19.8698,1.669272128018631
19.8696,1.669272128018631
19.8694,1.669272128018631
19.8692,1.669272128018631
19.869,1.669272128018631
19.8688,1.672950439742048
19.8686,1.672950439742048
19.8684,1.672950439742048
19.8682,1.672950439742048
19.868,1.672950439742048
19.8678,1.672950439742048
19.8676,1.672950439742048
19.8674,1.672950439742048
19.8672,1.672950439742048
19.867,1.672950439742048
19.8668,1.672950439742048
19.8666,1.672950439742048
19.8664,1.672950439742048
19.8662,1.672950439742048
19.866,1.672950439742048
19.8658,1.672950439742048
19.8656,1.672950439742048
19.8654,1.672950439742048
19.8652,1.672950439742048
19.865,1.672950439742048
19.8648,1.672950439742048
19.8646,1.669272128018631
19.8644,1.669272128018631
19.8642,1.669272128018631
19.864,1.669272128018631
19.8638,1.669272128018631
19.8636,1.669272128018631
19.8634,1.669272128018631
19.8632,1.669272128018631
19.863,1.669272128018631
19.8628,1.669272128018631
19.8626,1.665593816295214
19.8624,1.665593816295214
19.8622,1.665593816295214
19.862,1.665593816295214
19.8618,1.665593816295214
19.8616,1.661915504571797
19.8614,1.661915504571797
19.8612,1.661915504571797
19.861,1.65823719284838
19.8608,1.65823719284838
19.8606,1.65823719284838
19.8604,1.65823719284838
19.8602,1.654558881124963
19.86,1.654558881124963
19.8598,1.654558881124963
19.8596,1.654558881124963
19.8594,1.654558881124963
19.8592,1.654558881124963
19.859,1.654558881124963
19.8588,1.654558881124963
19.8586,1.654558881124963
19.8584,1.654558881124963
19.8582,1.654558881124963
19.858,1.654558881124963
19.8578,1.654558881124963
19.8576,1.65823719284838
19.8574,1.65823719284838
19.8572,1.65823719284838
19.857,1.65823719284838
19.8568,1.65823719284838
19.8566,1.65823719284838
19.8564,1.65823719284838
19.8562,1.65823719284838
19.856,1.65823719284838
19.8558,1.65823719284838
19.8556,1.65823719284838
19.8554,1.654558881124963
19.8552,1.654558881124963
19.855,1.654558881124963
19.8548,1.65823719284838
19.8546,1.65823719284838
19.8544,1.65823719284838
19.8542,1.654558881124963
19.854,1.654558881124963
19.8538,1.65823719284838
19.8536,1.65823719284838
19.8534,1.65823719284838
19.8532,1.65823719284838
19.853,1.65823719284838
19.8528,1.654558881124963
19.8526,1.654558881124963
19.8524,1.654558881124963
19.8522,1.654558881124963
19.852,1.654558881124963
19.8518,1.654558881124963
19.8516,1.654558881124963
19.8514,1.650880569401546
19.8512,1.650880569401546
19.851,1.650880569401546
19.8508,1.650880569401546
19.8506,1.647202257678129
19.8504,1.647202257678129
19.8502,1.647202257678129
19.85,1.647202257678129
19.8498,1.647202257678129
19.8496,1.647202257678129
19.8494,1.647202257678129
19.8492,1.647202257678129
19.849,1.647202257678129
19.8488,1.647202257678129
19.8486,1.647202257678129
19.8484,1.650880569401546
19.8482,1.647202257678129
19.848,1.650880569401546
19.8478,1.650880569401546
19.8476,1.650880569401546
19.8474,1.650880569401546
19.8472,1.650880569401546
19.847,1.654558881124963
19.8468,1.654558881124963
19.8466,1.654558881124963
19.8464,1.654558881124963
19.8462,1.654558881124963
19.846,1.654558881124963
19.8458,1.65823719284838
19.8456,1.65823719284838
19.8454,1.65823719284838
19.8452,1.65823719284838
19.845,1.65823719284838
19.8448,1.65823719284838
19.8446,1.661915504571797
19.8444,1.661915504571797
19.8442,1.661915504571797
19.844,1.661915504571797
19.8438,1.661915504571797
19.8436,1.661915504571797
19.8434,1.661915504571797
19.8432,1.661915504571797
19.843,1.665593816295214
19.8428,1.665593816295214
19.8426,1.661915504571797
19.8424,1.661915504571797
19.8422,1.661915504571797
19.842,1.661915504571797
19.8418,1.661915504571797
19.8416,1.661915504571797
19.8414,1.661915504571797
19.8412,1.661915504571797
19.841,1.65823719284838
19.8408,1.65823719284838
19.8406,1.654558881124963
19.8404,1.654558881124963
19.8402,1.650880569401546
19.84,1.650880569401546
19.8398,1.650880569401546
19.8396,1.647202257678129
19.8394,1.647202257678129
19.8392,1.647202257678129
19.839,1.643523945954712
19.8388,1.643523945954712
19.8386,1.643523945954712
19.8384,1.639845634231295
19.8382,1.639845634231295
19.838,1.639845634231295
19.8378,1.643523945954712
19.8376,1.643523945954712
19.8374,1.643523945954712
19.8372,1.643523945954712
19.837,1.643523945954712
19.8368,1.643523945954712
19.8366,1.643523945954712
19.8364,1.643523945954712
19.8362,1.643523945954712
19.836,1.647202257678129
19.8358,1.647202257678129
19.8356,1.647202257678129
19.8354,1.647202257678129
19.8352,1.647202257678129
19.835,1.647202257678129
19.8348,1.647202257678129
19.8346,1.647202257678129
19.8344,1.647202257678129
19.8342,1.647202257678129
19.834,1.647202257678129
19.8338,1.647202257678129
19.8336,1.647202257678129
19.8334,1.650880569401546
19.8332,1.647202257678129
19.833,1.650880569401546
19.8328,1.650880569401546
19.8326,1.650880569401546
19.8324,1.650880569401546
19.8322,1.654558881124963
19.832,1.654558881124963
19.8318,1.654558881124963
19.8316,1.654558881124963
19.8314,1.65823719284838
19.8312,1.65823719284838
19.831,1.65823719284838
19.8308,1.65823719284838
19.8306,1.661915504571797
19.8304,1.661915504571797
19.8302,1.661915504571797
19.83,1.665593816295214
19.8298,1.665593816295214
19.8296,1.665593816295214
19.8294,1.669272128018631
19.8292,1.669272128018631
19.829,1.669272128018631
19.8288,1.672950439742048
19.8286,1.672950439742048
19.8284,1.672950439742048
19.8282,1.676628751465466
19.828,1.676628751465466
19.8278,1.676628751465466
19.8276,1.676628751465466
19.8274,1.676628751465466
19.8272,1.676628751465466
19.827,1.676628751465466
19.8268,1.676628751465466
19.8266,1.676628751465466
19.8264,1.676628751465466
19.8262,1.680307063188883
19.826,1.676628751465466
19.8258,1.676628751465466
19.8256,1.676628751465466
19.8254,1.676628751465466
19.8252,1.676628751465466
19.825,1.672950439742048
19.8248,1.676628751465466
19.8246,1.672950439742048
19.8244,1.672950439742048
19.8242,1.672950439742048
19.824,1.669272128018631
19.8238,1.669272128018631
19.8236,1.669272128018631
19.8234,1.669272128018631
19.8232,1.665593816295214
19.823,1.669272128018631
19.8228,1.665593816295214
19.8226,1.665593816295214
19.8224,1.661915504571797
19.8222,1.661915504571797
19.822,1.661915504571797
19.8218,1.661915504571797
19.8216,1.661915504571797
19.8214,1.65823719284838
19.8212,1.65823719284838
19.821,1.65823719284838
19.8208,1.65823719284838
19.8206,1.654558881124963
19.8204,1.654558881124963
19.8202,1.654558881124963
19.82,1.654558881124963
19.8198,1.650880569401546
19.8196,1.650880569401546
19.8194,1.647202257678129
19.8192,1.647202257678129
19.819,1.647202257678129
19.8188,1.647202257678129
19.8186,1.643523945954712
19.8184,1.643523945954712
19.8182,1.639845634231295
19.818,1.639845634231295
19.8178,1.639845634231295
19.8176,1.639845634231295
19.8174,1.639845634231295
19.8172,1.639845634231295
19.817,1.636167322507877
19.8168,1.636167322507877
19.8166,1.639845634231295
19.8164,1.636167322507877
19.8162,1.636167322507877
19.816,1.636167322507877
19.8158,1.636167322507877
19.8156,1.639845634231295
19.8154,1.639845634231295
19.8152,1.639845634231295
19.815,1.639845634231295
19.8148,1.639845634231295
19.8146,1.639845634231295
19.8144,1.639845634231295
19.8142,1.639845634231295
19.814,1.639845634231295
19.8138,1.639845634231295
19.8136,1.639845634231295
19.8134,1.639845634231295
19.8132,1.639845634231295
19.813,1.639845634231295
19.8128,1.639845634231295
19.8126,1.643523945954712
19.8124,1.643523945954712
19.8122,1.647202257678129
19.812,1.647202257678129
19.8118,1.650880569401546
19.8116,1.650880569401546
19.8114,1.654558881124963
19.8112,1.654558881124963
19.811,1.65823719284838
19.8108,1.65823719284838
19.8106,1.661915504571797
19.8104,1.661915504571797
19.8102,1.665593816295214
19.81,1.665593816295214
19.8098,1.669272128018631
19.8096,1.669272128018631
19.8094,1.669272128018631
19.8092,1.669272128018631
19.809,1.672950439742048
19.8088,1.672950439742048
19.8086,1.672950439742048
19.8084,1.676628751465466
19.8082,1.676628751465466
19.808,1.676628751465466
19.8078,1.676628751465466
19.8076,1.676628751465466
19.8074,1.672950439742048
19.8072,1.672950439742048
19.807,1.672950439742048
19.8068,1.669272128018631
19.8066,1.672950439742048
19.8064,1.669272128018631
19.8062,1.669272128018631
19.806,1.669272128018631
19.8058,1.669272128018631
19.8056,1.669272128018631
19.8054,1.669272128018631
19.8052,1.669272128018631
19.805,1.669272128018631
19.8048,1.669272128018631
19.8046,1.669272128018631
19.8044,1.669272128018631
19.8042,1.669272128018631
19.804,1.669272128018631
19.8038,1.669272128018631
19.8036,1.669272128018631
19.8034,1.665593816295214
19.8032,1.665593816295214
19.803,1.665593816295214
19.8028,1.661915504571797
19.8026,1.661915504571797
19.8024,1.661915504571797
19.8022,1.661915504571797
19.802,1.65823719284838
19.8018,1.65823719284838
19.8016,1.654558881124963
19.8014,1.654558881124963
19.8012,1.654558881124963
19.801,1.654558881124963
19.8008,1.654558881124963
19.8006,1.654558881124963
19.8004,1.654558881124963
19.8002,1.650880569401546
19.8,1.650880569401546
19.7998,1.647202257678129
19.7996,1.647202257678129
19.7994,1.643523945954712
19.7992,1.643523945954712
19.799,1.643523945954712
19.7988,1.639845634231295
19.7986,1.636167322507877
19.7984,1.636167322507877
19.7982,1.636167322507877
19.798,1.63248901078446
19.7978,1.63248901078446
19.7976,1.628810699061043
19.7974,1.628810699061043
19.7972,1.628810699061043
19.797,1.628810699061043
19.7968,1.628810699061043
19.7966,1.628810699061043
19.7964,1.628810699061043
19.7962,1.628810699061043
19.796,1.628810699061043
19.7958,1.628810699061043
19.7956,1.628810699061043
19.7954,1.628810699061043
19.7952,1.628810699061043
19.795,1.628810699061043
19.7948,1.628810699061043
19.7946,1.63248901078446
19.7944,1.63248901078446
19.7942,1.628810699061043
19.794,1.63248901078446
19.7938,1.63248901078446
19.7936,1.63248901078446
19.7934,1.63248901078446
19.7932,1.63248901078446
19.793,1.636167322507877
19.7928,1.636167322507877
19.7926,1.636167322507877
19.7924,1.636167322507877
19.7922,1.639845634231295
19.792,1.639845634231295
19.7918,1.639845634231295
19.7916,1.639845634231295
19.7914,1.639845634231295
19.7912,1.639845634231295
19.791,1.643523945954712
19.7908,1.643523945954712
19.7906,1.639845634231295
19.7904,1.643523945954712
19.7902,1.643523945954712
19.79,1.643523945954712
19.7898,1.643523945954712
19.7896,1.643523945954712
19.7894,1.643523945954712
19.7892,1.643523945954712
19.789,1.643523945954712
19.7888,1.643523945954712
19.7886,1.643523945954712
19.7884,1.643523945954712
19.7882,1.643523945954712
19.788,1.643523945954712
19.7878,1.643523945954712
19.7876,1.643523945954712
19.7874,1.643523945954712
19.7872,1.643523945954712
19.787,1.647202257678129
19.7868,1.643523945954712
19.7866,1.643523945954712
19.7864,1.647202257678129
19.7862,1.643523945954712
19.786,1.643523945954712
19.7858,1.643523945954712
19.7856,1.647202257678129
19.7854,1.643523945954712
19.7852,1.643523945954712
19.785,1.643523945954712
19.7848,1.643523945954712
19.7846,1.643523945954712
19.7844,1.643523945954712
19.7842,1.647202257678129
19.784,1.647202257678129
19.7838,1.647202257678129
19.7836,1.647202257678129
19.7834,1.647202257678129
19.7832,1.647202257678129
19.783,1.647202257678129
19.7828,1.647202257678129
19.7826,1.647202257678129
19.7824,1.647202257678129
19.7822,1.647202257678129
19.782,1.647202257678129
19.7818,1.647202257678129
19.7816,1.643523945954712
19.7814,1.647202257678129
19.7812,1.647202257678129
19.781,1.647202257678129
19.7808,1.647202257678129
19.7806,1.647202257678129
19.7804,1.647202257678129
19.7802,1.647202257678129
19.78,1.647202257678129
19.7798,1.647202257678129
19.7796,1.643523945954712
19.7794,1.643523945954712
19.7792,1.643523945954712
19.779,1.643523945954712
19.7788,1.643523945954712
19.7786,1.643523945954712
19.7784,1.639845634231295
19.7782,1.639845634231295
19.778,1.639845634231295
19.7778,1.639845634231295
19.7776,1.639845634231295
19.7774,1.636167322507877
19.7772,1.636167322507877
19.777,1.636167322507877
19.7768,1.636167322507877
19.7766,1.636167322507877
19.7764,1.636167322507877
19.7762,1.636167322507877
19.776,1.636167322507877
19.7758,1.636167322507877
19.7756,1.636167322507877
19.7754,1.639845634231295
19.7752,1.639845634231295
19.775,1.639845634231295
19.7748,1.643523945954712
19.7746,1.643523945954712
19.7744,1.643523945954712
19.7742,1.643523945954712
19.774,1.647202257678129
19.7738,1.647202257678129
19.7736,1.647202257678129
19.7734,1.647202257678129
19.7732,1.647202257678129
19.773,1.647202257678129
19.7728,1.650880569401546
19.7726,1.650880569401546
19.7724,1.650880569401546
19.7722,1.650880569401546
19.772,1.650880569401546
19.7718,1.654558881124963
19.7716,1.654558881124963
19.7714,1.654558881124963
19.7712,1.65823719284838
19.771,1.65823719284838
19.7708,1.65823719284838
19.7706,1.661915504571797
19.7704,1.661915504571797
19.7702,1.661915504571797
19.77,1.661915504571797
19.7698,1.661915504571797
19.7696,1.665593816295214
19.7694,1.665593816295214
19.7692,1.665593816295214
19.769,1.665593816295214
19.7688,1.665593816295214
19.7686,1.665593816295214
19.7684,1.669272128018631
19.7682,1.669272128018631
19.768,1.672950439742048
19.7678,1.672950439742048
19.7676,1.672950439742048
19.7674,1.672950439742048
19.7672,1.676628751465466
19.767,1.676628751465466
19.7668,1.676628751465466
19.7666,1.676628751465466
19.7664,1.680307063188883
19.7662,1.680307063188883
19.766,1.680307063188883
19.7658,1.680307063188883
19.7656,1.680307063188883
19.7654,1.680307063188883
19.7652,1.680307063188883
19.765,1.680307063188883
19.7648,1.680307063188883
19.7646,1.680307063188883
19.7644,1.680307063188883
19.7642,1.680307063188883
19.764,1.680307063188883
19.7638,1.680307063188883
19.7636,1.680307063188883
19.7634,1.676628751465466
19.7632,1.676628751465466
19.763,1.676628751465466
19.7628,1.676628751465466
19.7626,1.676628751465466
19.7624,1.672950439742048
19.7622,1.672950439742048
19.762,1.672950439742048
19.7618,1.669272128018631
19.7616,1.669272128018631
19.7614,1.665593816295214
19.7612,1.665593816295214
19.761,1.661915504571797
19.7608,1.661915504571797
19.7606,1.65823719284838
19.7604,1.65823719284838
19.7602,1.654558881124963
19.76,1.654558881124963
19.7598,1.650880569401546
19.7596,1.650880569401546
19.7594,1.647202257678129
19.7592,1.647202257678129
19.759,1.643523945954712
19.7588,1.643523945954712
19.7586,1.639845634231295
19.7584,1.639845634231295
19.7582,1.639845634231295
19.758,1.636167322507877
19.7578,1.636167322507877
19.7576,1.63248901078446
19.7574,1.63248901078446
19.7572,1.628810699061043
19.757,1.628810699061043
19.7568,1.628810699061043
19.7566,1.625132387337626
19.7564,1.625132387337626
19.7562,1.625132387337626
19.756,1.625132387337626
19.7558,1.625132387337626
19.7556,1.625132387337626
19.7554,1.625132387337626
19.7552,1.625132387337626
19.755,1.625132387337626
19.7548,1.625132387337626
19.7546,1.625132387337626
19.7544,1.625132387337626
19.7542,1.625132387337626
19.754,1.625132387337626
19.7538,1.625132387337626
19.7536,1.625132387337626
19.7534,1.625132387337626
19.7532,1.625132387337626
19.753,1.625132387337626
19.7528,1.625132387337626
19.7526,1.628810699061043
19.7524,1.628810699061043
19.7522,1.628810699061043
19.752,1.628810699061043
19.7518,1.63248901078446
19.7516,1.63248901078446
19.7514,1.636167322507877
19.7512,1.639845634231295
19.751,1.639845634231295
19.7508,1.643523945954712
19.7506,1.647202257678129
19.7504,1.647202257678129
19.7502,1.650880569401546
19.75,1.650880569401546
19.7498,1.650880569401546
19.7496,1.650880569401546
19.7494,1.654558881124963
19.7492,1.654558881124963
19.749,1.654558881124963
19.7488,1.65823719284838
19.7486,1.65823719284838
19.7484,1.65823719284838
19.7482,1.65823719284838
19.748,1.65823719284838
19.7478,1.65823719284838
19.7476,1.65823719284838
19.7474,1.65823719284838
19.7472,1.65823719284838
19.747,1.65823719284838
19.7468,1.65823719284838
19.7466,1.65823719284838
19.7464,1.65823719284838
19.7462,1.65823719284838
19.746,1.65823719284838
19.7458,1.65823719284838
19.7456,1.65823719284838
19.7454,1.65823719284838
19.7452,1.65823719284838
19.745,1.65823719284838
19.7448,1.65823719284838
19.7446,1.65823719284838
19.7444,1.65823719284838
19.7442,1.65823719284838
19.744,1.65823719284838
19.7438,1.65823719284838
19.7436,1.65823719284838
19.7434,1.65823719284838
19.7432,1.65823719284838
19.743,1.65823719284838
19.7428,1.65823719284838
19.7426,1.65823719284838
19.7424,1.65823719284838
19.7422,1.654558881124963
19.742,1.654558881124963
19.7418,1.65823719284838
19.7416,1.654558881124963
19.7414,1.654558881124963
19.7412,1.654558881124963
19.741,1.654558881124963
19.7408,1.654558881124963
19.7406,1.650880569401546
19.7404,1.650880569401546
19.7402,1.650880569401546
19.74,1.650880569401546
19.7398,1.650880569401546
19.7396,1.650880569401546
19.7394,1.647202257678129
19.7392,1.647202257678129
19.739,1.647202257678129
19.7388,1.647202257678129
19.7386,1.647202257678129
19.7384,1.647202257678129
19.7382,1.647202257678129
19.738,1.643523945954712
19.7378,1.643523945954712
19.7376,1.643523945954712
19.7374,1.643523945954712
19.7372,1.643523945954712
19.737,1.643523945954712
19.7368,1.643523945954712
19.7366,1.643523945954712
19.7364,1.643523945954712
19.7362,1.643523945954712
19.736,1.639845634231295
19.7358,1.639845634231295
19.7356,1.639845634231295
19.7354,1.639845634231295
19.7352,1.639845634231295
19.735,1.639845634231295
19.7348,1.639845634231295
19.7346,1.639845634231295
19.7344,1.636167322507877
19.7342,1.639845634231295
19.734,1.639845634231295
19.7338,1.639845634231295
19.7336,1.639845634231295
19.7334,1.639845634231295
19.7332,1.639845634231295
19.733,1.639845634231295
19.7328,1.639845634231295
19.7326,1.639845634231295
19.7324,1.639845634231295
19.7322,1.639845634231295
19.732,1.643523945954712
19.7318,1.643523945954712
19.7316,1.643523945954712
19.7314,1.643523945954712
19.7312,1.643523945954712
19.731,1.643523945954712
19.7308,1.647202257678129
19.7306,1.647202257678129
19.7304,1.647202257678129
19.7302,1.650880569401546
19.73,1.650880569401546
19.7298,1.654558881124963
19.7296,1.654558881124963
19.7294,1.654558881124963
19.7292,1.65823719284838
19.729,1.661915504571797
19.7288,1.661915504571797
19.7286,1.661915504571797
19.7284,1.665593816295214
19.7282,1.665593816295214
19.728,1.665593816295214
19.7278,1.669272128018631
19.7276,1.669272128018631
19.7274,1.669272128018631
19.7272,1.672950439742048
19.727,1.672950439742048
19.7268,1.672950439742048
19.7266,1.672950439742048
19.7264,1.672950439742048
19.7262,1.672950439742048
19.726,1.676628751465466
19.7258,1.672950439742048
19.7256,1.672950439742048
19.7254,1.672950439742048
19.7252,1.672950439742048
19.725,1.672950439742048
19.7248,1.672950439742048
19.7246,1.672950439742048
19.7244,1.672950439742048
19.7242,1.672950439742048
19.724,1.669272128018631
19.7238,1.672950439742048
19.7236,1.672950439742048
19.7234,1.672950439742048
19.7232,1.672950439742048
19.723,1.672950439742048
19.7228,1.672950439742048
19.7226,1.672950439742048
19.7224,1.676628751465466
19.7222,1.676628751465466
19.722,1.676628751465466
19.7218,1.676628751465466
19.7216,1.676628751465466
19.7214,1.672950439742048
19.7212,1.672950439742048
19.721,1.672950439742048
19.7208,1.672950439742048
19.7206,1.672950439742048
19.7204,1.669272128018631
19.7202,1.669272128018631
19.72,1.669272128018631
19.7198,1.665593816295214
19.7196,1.665593816295214
19.7194,1.665593816295214
19.7192,1.665593816295214
19.719,1.665593816295214
19.7188,1.661915504571797
19.7186,1.661915504571797
19.7184,1.65823719284838
19.7182,1.65823719284838
19.718,1.65823719284838
19.7178,1.65823719284838
19.7176,1.65823719284838
19.7174,1.654558881124963
19.7172,1.654558881124963
19.717,1.654558881124963
19.7168,1.654558881124963
19.7166,1.654558881124963
19.7164,1.654558881124963
19.7162,1.650880569401546
19.716,1.654558881124963
19.7158,1.650880569401546
19.7156,1.650880569401546
19.7154,1.650880569401546
19.7152,1.647202257678129
19.715,1.647202257678129
19.7148,1.647202257678129
19.7146,1.647202257678129
19.7144,1.647202257678129
19.7142,1.647202257678129
19.714,1.647202257678129
19.7138,1.647202257678129
19.7136,1.647202257678129
19.7134,1.647202257678129
19.7132,1.647202257678129
19.713,1.650880569401546
19.7128,1.647202257678129
19.7126,1.647202257678129
19.7124,1.650880569401546
19.7122,1.650880569401546
19.712,1.650880569401546
19.7118,1.650880569401546
19.7116,1.654558881124963
19.7114,1.654558881124963
19.7112,1.654558881124963
19.711,1.654558881124963
19.7108,1.654558881124963
19.7106,1.654558881124963
19.7104,1.654558881124963
19.7102,1.654558881124963
19.71,1.65823719284838
19.7098,1.65823719284838
19.7096,1.65823719284838
19.7094,1.65823719284838
19.7092,1.65823719284838
19.709,1.661915504571797
19.7088,1.661915504571797
19.7086,1.661915504571797
19.7084,1.661915504571797
19.7082,1.661915504571797
19.708,1.661915504571797
19.7078,1.661915504571797
19.7076,1.661915504571797
19.7074,1.661915504571797
19.7072,1.661915504571797
19.707,1.661915504571797
19.7068,1.661915504571797
19.7066,1.661915504571797
19.7064,1.661915504571797
19.7062,1.661915504571797
19.706,1.661915504571797
19.7058,1.65823719284838
19.7056,1.65823719284838
19.7054,1.65823719284838
19.7052,1.65823719284838
19.705,1.65823719284838
19.7048,1.65823719284838
19.7046,1.65823719284838
19.7044,1.65823719284838
19.7042,1.65823719284838
19.704,1.661915504571797
19.7038,1.661915504571797
19.7036,1.661915504571797
19.7034,1.661915504571797
19.7032,1.661915504571797
19.703,1.661915504571797
19.7028,1.661915504571797
19.7026,1.65823719284838
19.7024,1.65823719284838
19.7022,1.65823719284838
19.702,1.65823719284838
19.7018,1.654558881124963
19.7016,1.654558881124963
19.7014,1.654558881124963
19.7012,1.654558881124963
19.701,1.650880569401546
19.7008,1.650880569401546
19.7006,1.650880569401546
19.7004,1.650880569401546
19.7002,1.647202257678129
19.7,1.647202257678129
19.6998,1.647202257678129
19.6996,1.643523945954712
19.6994,1.643523945954712
19.6992,1.639845634231295
19.699,1.639845634231295
19.6988,1.639845634231295
19.6986,1.639845634231295
19.6984,1.639845634231295
19.6982,1.636167322507877
19.698,1.636167322507877
19.6978,1.636167322507877
19.6976,1.636167322507877
19.6974,1.636167322507877
19.6972,1.636167322507877
19.697,1.636167322507877
19.6968,1.636167322507877
19.6966,1.636167322507877
19.6964,1.639845634231295
19.6962,1.639845634231295
19.696,1.639845634231295
19.6958,1.639845634231295
19.6956,1.639845634231295
19.6954,1.643523945954712
19.6952,1.643523945954712
19.695,1.643523945954712
19.6948,1.643523945954712
19.6946,1.643523945954712
19.6944,1.643523945954712
19.6942,1.647202257678129
19.694,1.647202257678129
19.6938,1.647202257678129
19.6936,1.647202257678129
19.6934,1.650880569401546
19.6932,1.650880569401546
19.693,1.650880569401546
19.6928,1.650880569401546
19.6926,1.650880569401546
19.6924,1.650880569401546
19.6922,1.650880569401546
19.692,1.654558881124963
19.6918,1.650880569401546
19.6916,1.654558881124963
19.6914,1.654558881124963
19.6912,1.654558881124963
19.691,1.654558881124963
19.6908,1.654558881124963
19.6906,1.654558881124963
19.6904,1.654558881124963
19.6902,1.654558881124963
19.69,1.654558881124963
19.6898,1.654558881124963
19.6896,1.654558881124963
19.6894,1.65823719284838
19.6892,1.65823719284838
19.689,1.65823719284838
19.6888,1.65823719284838
19.6886,1.65823719284838
19.6884,1.65823719284838
19.6882,1.65823719284838
19.688,1.65823719284838
19.6878,1.65823719284838
19.6876,1.65823719284838
19.6874,1.654558881124963
19.6872,1.654558881124963
19.687,1.654558881124963
19.6868,1.654558881124963
19.6866,1.654558881124963
19.6864,1.650880569401546
19.6862,1.650880569401546
19.686,1.650880569401546
19.6858,1.650880569401546
19.6856,1.650880569401546
19.6854,1.647202257678129
19.6852,1.647202257678129
19.685,1.650880569401546
19.6848,1.647202257678129
19.6846,1.650880569401546
19.6844,1.647202257678129
19.6842,1.650880569401546
19.684,1.650880569401546
19.6838,1.650880569401546
19.6836,1.654558881124963
19.6834,1.654558881124963
19.6832,1.654558881124963
19.683,1.650880569401546
19.6828,1.654558881124963
19.6826,1.654558881124963
19.6824,1.654558881124963
19.6822,1.654558881124963
19.682,1.654558881124963
19.6818,1.654558881124963
19.6816,1.654558881124963
19.6814,1.650880569401546
19.6812,1.650880569401546
19.681,1.650880569401546
19.6808,1.650880569401546
19.6806,1.650880569401546
19.6804,1.650880569401546
19.6802,1.650880569401546
19.68,1.650880569401546
19.6798,1.650880569401546
19.6796,1.650880569401546
19.6794,1.650880569401546
19.6792,1.650880569401546
19.679,1.650880569401546
19.6788,1.647202257678129
19.6786,1.647202257678129
19.6784,1.647202257678129
19.6782,1.647202257678129
19.678,1.647202257678129
19.6778,1.643523945954712
19.6776,1.643523945954712
19.6774,1.643523945954712
19.6772,1.643523945954712
19.677,1.643523945954712
19.6768,1.643523945954712
19.6766,1.639845634231295
19.6764,1.643523945954712
19.6762,1.639845634231295
19.676,1.639845634231295
19.6758,1.639845634231295
19.6756,1.639845634231295
19.6754,1.643523945954712
19.6752,1.639845634231295
19.675,1.639845634231295
19.6748,1.639845634231295
19.6746,1.639845634231295
19.6744,1.639845634231295
19.6742,1.643523945954712
19.674,1.643523945954712
19.6738,1.643523945954712
19.6736,1.643523945954712
19.6734,1.643523945954712
19.6732,1.643523945954712
19.673,1.643523945954712
19.6728,1.643523945954712
19.6726,1.643523945954712
19.6724,1.647202257678129
19.6722,1.647202257678129
19.672,1.647202257678129
19.6718,1.647202257678129
19.6716,1.650880569401546
19.6714,1.650880569401546
19.6712,1.650880569401546
19.671,1.654558881124963
19.6708,1.654558881124963
19.6706,1.654558881124963
19.6704,1.654558881124963
19.6702,1.654558881124963
19.67,1.65823719284838
19.6698,1.65823719284838
19.6696,1.65823719284838
19.6694,1.65823719284838
19.6692,1.661915504571797
19.669,1.661915504571797
19.6688,1.661915504571797
19.6686,1.661915504571797
19.6684,1.665593816295214
19.6682,1.661915504571797
19.668,1.661915504571797
19.6678,1.661915504571797
19.6676,1.661915504571797
19.6674,1.661915504571797
19.6672,1.65823719284838
19.667,1.661915504571797
19.6668,1.661915504571797
19.6666,1.65823719284838
19.6664,1.661915504571797
19.6662,1.661915504571797
19.666,1.661915504571797
19.6658,1.665593816295214
19.6656,1.665593816295214
19.6654,1.665593816295214
19.6652,1.665593816295214
19.665,1.669272128018631
19.6648,1.669272128018631
19.6646,1.669272128018631
19.6644,1.669272128018631
19.6642,1.669272128018631
19.664,1.669272128018631
19.6638,1.669272128018631
19.6636,1.669272128018631
19.6634,1.665593816295214
19.6632,1.665593816295214
19.663,1.665593816295214
19.6628,1.665593816295214
19.6626,1.661915504571797
19.6624,1.661915504571797
19.6622,1.65823719284838
19.662,1.65823719284838
19.6618,1.65823719284838
19.6616,1.654558881124963
19.6614,1.654558881124963
19.6612,1.654558881124963
19.661,1.654558881124963
19.6608,1.650880569401546
19.6606,1.650880569401546
19.6604,1.650880569401546
19.6602,1.650880569401546
19.66,1.650880569401546
19.6598,1.650880569401546
19.6596,1.650880569401546
19.6594,1.650880569401546
19.6592,1.650880569401546
19.659,1.647202257678129
19.6588,1.650880569401546
19.6586,1.650880569401546
19.6584,1.647202257678129
19.6582,1.647202257678129
19.658,1.647202257678129
19.6578,1.647202257678129
19.6576,1.647202257678129
19.6574,1.647202257678129
19.6572,1.647202257678129
19.657,1.647202257678129
19.6568,1.643523945954712
19.6566,1.643523945954712
19.6564,1.643523945954712
19.6562,1.647202257678129
19.656,1.643523945954712
19.6558,1.643523945954712
19.6556,1.643523945954712
19.6554,1.643523945954712
19.6552,1.643523945954712
19.655,1.643523945954712
19.6548,1.643523945954712
19.6546,1.643523945954712
19.6544,1.643523945954712
19.6542,1.643523945954712
19.654,1.643523945954712
19.6538,1.643523945954712
19.6536,1.643523945954712
19.6534,1.643523945954712
19.6532,1.643523945954712
19.653,1.647202257678129
19.6528,1.647202257678129
19.6526,1.647202257678129
19.6524,1.647202257678129
19.6522,1.647202257678129
19.652,1.647202257678129
19.6518,1.650880569401546
19.6516,1.650880569401546
19.6514,1.650880569401546
19.6512,1.654558881124963
19.651,1.654558881124963
19.6508,1.654558881124963
19.6506,1.654558881124963
19.6504,1.654558881124963
19.6502,1.65823719284838
19.65,1.65823719284838
19.6498,1.65823719284838
19.6496,1.65823719284838
19.6494,1.65823719284838
19.6492,1.661915504571797
19.649,1.661915504571797
19.6488,1.661915504571797
19.6486,1.661915504571797
19.6484,1.661915504571797
19.6482,1.661915504571797
19.648,1.661915504571797
19.6478,1.665593816295214
19.6476,1.665593816295214
19.6474,1.665593816295214
19.6472,1.665593816295214
19.647,1.665593816295214
19.6468,1.669272128018631
19.6466,1.669272128018631
19.6464,1.669272128018631
19.6462,1.669272128018631
19.646,1.669272128018631
19.6458,1.669272128018631
19.6456,1.669272128018631
19.6454,1.669272128018631
19.6452,1.669272128018631
19.645,1.672950439742048
19.6448,1.672950439742048
19.6446,1.672950439742048
19.6444,1.672950439742048
19.6442,1.669272128018631
19.644,1.672950439742048
19.6438,1.672950439742048
19.6436,1.669272128018631
19.6434,1.669272128018631
19.6432,1.669272128018631
19.643,1.669272128018631
19.6428,1.665593816295214
19.6426,1.665593816295214
19.6424,1.665593816295214
19.6422,1.665593816295214
19.642,1.661915504571797
19.6418,1.661915504571797
19.6416,1.661915504571797
19.6414,1.65823719284838
19.6412,1.65823719284838
19.641,1.654558881124963
19.6408,1.654558881124963
19.6406,1.654558881124963
19.6404,1.654558881124963
19.6402,1.654558881124963
19.64,1.654558881124963
19.6398,1.654558881124963
19.6396,1.654558881124963
19.6394,1.654558881124963
19.6392,1.654558881124963
19.639,1.654558881124963
19.6388,1.650880569401546
19.6386,1.654558881124963
19.6384,1.654558881124963
19.6382,1.650880569401546
19.638,1.650880569401546
19.6378,1.650880569401546
19.6376,1.650880569401546
19.6374,1.647202257678129
19.6372,1.650880569401546
19.637,1.647202257678129
19.6368,1.647202257678129
19.6366,1.647202257678129
19.6364,1.647202257678129
19.6362,1.643523945954712
19.636,1.643523945954712
19.6358,1.643523945954712
19.6356,1.643523945954712
19.6354,1.643523945954712
19.6352,1.643523945954712
19.635,1.639845634231295
19.6348,1.639845634231295
19.6346,1.639845634231295
19.6344,1.639845634231295
19.6342,1.639845634231295
19.634,1.639845634231295
19.6338,1.639845634231295
19.6336,1.639845634231295
19.6334,1.639845634231295
19.6332,1.639845634231295
19.633,1.639845634231295
19.6328,1.639845634231295
19.6326,1.639845634231295
19.6324,1.639845634231295
19.6322,1.639845634231295
19.632,1.639845634231295
19.6318,1.639845634231295
19.6316,1.639845634231295
19.6314,1.639845634231295
19.6312,1.639845634231295
19.631,1.639845634231295
19.6308,1.639845634231295
19.6306,1.636167322507877
19.6304,1.636167322507877
19.6302,1.636167322507877
19.63,1.636167322507877
19.6298,1.636167322507877
19.6296,1.636167322507877
19.6294,1.636167322507877
19.6292,1.636167322507877
19.629,1.636167322507877
19.6288,1.636167322507877
19.6286,1.636167322507877
19.6284,1.636167322507877
19.6282,1.636167322507877
19.628,1.636167322507877
19.6278,1.636167322507877
19.6276,1.636167322507877
19.6274,1.636167322507877
19.6272,1.636167322507877
19.627,1.636167322507877
19.6268,1.636167322507877
19.6266,1.636167322507877
19.6264,1.636167322507877
19.6262,1.636167322507877
19.626,1.636167322507877
19.6258,1.636167322507877
19.6256,1.636167322507877
19.6254,1.636167322507877
19.6252,1.636167322507877
19.625,1.636167322507877
19.6248,1.636167322507877
19.6246,1.636167322507877
19.6244,1.636167322507877
19.6242,1.636167322507877
19.624,1.636167322507877
19.6238,1.636167322507877
19.6236,1.636167322507877
19.6234,1.636167322507877
19.6232,1.636167322507877
19.623,1.636167322507877
19.6228,1.636167322507877
19.6226,1.636167322507877
19.6224,1.636167322507877
19.6222,1.636167322507877
19.622,1.636167322507877
19.6218,1.63248901078446
19.6216,1.63248901078446
19.6214,1.63248901078446
19.6212,1.63248901078446
19.621,1.63248901078446
19.6208,1.63248901078446
19.6206,1.63248901078446
19.6204,1.63248901078446
19.6202,1.63248901078446
19.62,1.636167322507877
19.6198,1.636167322507877
19.6196,1.636167322507877
19.6194,1.636167322507877
19.6192,1.636167322507877
19.619,1.636167322507877
19.6188,1.636167322507877
19.6186,1.636167322507877
19.6184,1.63248901078446
19.6182,1.63248901078446
19.618,1.63248901078446
19.6178,1.63248901078446
19.6176,1.63248901078446
19.6174,1.636167322507877
19.6172,1.636167322507877
19.617,1.636167322507877
19.6168,1.636167322507877
19.6166,1.636167322507877
19.6164,1.639845634231295
19.6162,1.639845634231295
19.616,1.639845634231295
19.6158,1.643523945954712
19.6156,1.643523945954712
19.6154,1.643523945954712
19.6152,1.647202257678129
19.615,1.647202257678129
19.6148,1.647202257678129
19.6146,1.650880569401546
19.6144,1.650880569401546
19.6142,1.650880569401546
19.614,1.654558881124963
19.6138,1.654558881124963
19.6136,1.654558881124963
19.6134,1.654558881124963
19.6132,1.654558881124963
19.613,1.654558881124963
19.6128,1.654558881124963
19.6126,1.654558881124963
19.6124,1.654558881124963
19.6122,1.654558881124963
19.612,1.654558881124963
19.6118,1.654558881124963
19.6116,1.654558881124963
19.6114,1.65823719284838
19.6112,1.65823719284838
19.611,1.661915504571797
19.6108,1.661915504571797
19.6106,1.661915504571797
19.6104,1.661915504571797
19.6102,1.665593816295214
19.61,1.665593816295214
19.6098,1.665593816295214
19.6096,1.665593816295214
19.6094,1.665593816295214
19.6092,1.669272128018631
19.609,1.669272128018631
19.6088,1.672950439742048
19.6086,1.672950439742048
19.6084,1.672950439742048
19.6082,1.672950439742048
19.608,1.676628751465466
19.6078,1.676628751465466
19.6076,1.676628751465466
19.6074,1.680307063188883
19.6072,1.680307063188883
19.607,1.680307063188883
19.6068,1.680307063188883
19.6066,1.6839853749123
19.6064,1.6839853749123
19.6062,1.6839853749123
19.606,1.6839853749123
19.6058,1.6839853749123
19.6056,1.6839853749123
19.6054,1.6839853749123
19.6052,1.687663686635717
19.605,1.687663686635717
19.6048,1.6839853749123
19.6046,1.6839853749123
19.6044,1.6839853749123
19.6042,1.680307063188883
19.604,1.680307063188883
19.6038,1.680307063188883
19.6036,1.676628751465466
19.6034,1.676628751465466
19.6032,1.672950439742048
19.603,1.672950439742048
19.6028,1.669272128018631
19.6026,1.665593816295214
19.6024,1.665593816295214
19.6022,1.665593816295214
19.602,1.661915504571797
19.6018,1.65823719284838
19.6016,1.65823719284838
19.6014,1.654558881124963
19.6012,1.654558881124963
19.601,1.650880569401546
19.6008,1.650880569401546
19.6006,1.647202257678129
19.6004,1.647202257678129
19.6002,1.643523945954712
19.6,1.643523945954712
19.5998,1.639845634231295
19.5996,1.636167322507877
19.5994,1.636167322507877
19.5992,1.63248901078446
19.599,1.628810699061043
19.5988,1.628810699061043
19.5986,1.625132387337626
19.5984,1.625132387337626
19.5982,1.621454075614209
19.598,1.621454075614209
19.5978,1.621454075614209
19.5976,1.617775763890792
19.5974,1.614097452167375
19.5972,1.614097452167375
19.597,1.610419140443958
19.5968,1.610419140443958
19.5966,1.610419140443958
19.5964,1.606740828720541
19.5962,1.603062516997124
19.596,1.599384205273707
19.5958,1.599384205273707
19.5956,1.599384205273707
19.5954,1.599384205273707
19.5952,1.595705893550289
19.595,1.595705893550289
19.5948,1.592027581826872
19.5946,1.592027581826872
19.5944,1.592027581826872
19.5942,1.595705893550289
19.594,1.595705893550289
19.5938,1.599384205273707
19.5936,1.599384205273707
19.5934,1.603062516997124
19.5932,1.603062516997124
19.593,1.606740828720541
19.5928,1.610419140443958
19.5926,1.614097452167375
19.5924,1.614097452167375
19.5922,1.617775763890792
19.592,1.621454075614209
19.5918,1.621454075614209
19.5916,1.625132387337626
19.5914,1.628810699061043
19.5912,1.628810699061043
19.591,1.63248901078446
19.5908,1.63248901078446
19.5906,1.63248901078446
19.5904,1.636167322507877
19.5902,1.636167322507877
19.59,1.639845634231295
19.5898,1.643523945954712
19.5896,1.643523945954712
19.5894,1.643523945954712
19.5892,1.647202257678129
19.589,1.647202257678129
19.5888,1.647202257678129
19.5886,1.647202257678129
19.5884,1.650880569401546
19.5882,1.650880569401546
19.588,1.650880569401546
19.5878,1.650880569401546
19.5876,1.650880569401546
19.5874,1.650880569401546
19.5872,1.650880569401546
19.587,1.650880569401546
19.5868,1.654558881124963
19.5866,1.654558881124963
19.5864,1.654558881124963
19.5862,1.654558881124963
19.586,1.654558881124963
19.5858,1.654558881124963
19.5856,1.654558881124963
19.5854,1.654558881124963
19.5852,1.65823719284838
19.585,1.65823719284838
19.5848,1.65823719284838
19.5846,1.65823719284838
19.5844,1.661915504571797
19.5842,1.661915504571797
19.584,1.661915504571797
19.5838,1.661915504571797
19.5836,1.661915504571797
19.5834,1.665593816295214
19.5832,1.665593816295214
19.583,1.665593816295214
19.5828,1.661915504571797
19.5826,1.665593816295214
19.5824,1.665593816295214
19.5822,1.665593816295214
19.582,1.665593816295214
19.5818,1.665593816295214
19.5816,1.665593816295214
19.5814,1.661915504571797
19.5812,1.665593816295214
19.581,1.665593816295214
19.5808,1.665593816295214
19.5806,1.665593816295214
19.5804,1.661915504571797
19.5802,1.665593816295214
19.58,1.661915504571797
19.5798,1.661915504571797
19.5796,1.661915504571797
19.5794,1.65823719284838
19.5792,1.65823719284838
19.579,1.654558881124963
19.5788,1.654558881124963
19.5786,1.650880569401546
19.5784,1.650880569401546
19.5782,1.647202257678129
19.578,1.647202257678129
19.5778,1.647202257678129
19.5776,1.643523945954712
19.5774,1.643523945954712
19.5772,1.643523945954712
19.577,1.639845634231295
19.5768,1.639845634231295
19.5766,1.636167322507877
19.5764,1.636167322507877
19.5762,1.636167322507877
19.576,1.63248901078446
19.5758,1.63248901078446
19.5756,1.63248901078446
19.5754,1.63248901078446
19.5752,1.63248901078446
19.575,1.63248901078446
19.5748,1.628810699061043
19.5746,1.63248901078446
19.5744,1.63248901078446
19.5742,1.63248901078446
19.574,1.628810699061043
19.5738,1.628810699061043
19.5736,1.63248901078446
19.5734,1.63248901078446
19.5732,1.63248901078446
19.573,1.63248901078446
19.5728,1.63248901078446
19.5726,1.636167322507877
19.5724,1.636167322507877
19.5722,1.636167322507877
19.572,1.636167322507877
19.5718,1.636167322507877
19.5716,1.639845634231295
19.5714,1.639845634231295
19.5712,1.639845634231295
19.571,1.639845634231295
19.5708,1.643523945954712
19.5706,1.639845634231295
19.5704,1.643523945954712
19.5702,1.643523945954712
19.57,1.643523945954712
19.5698,1.643523945954712
19.5696,1.643523945954712
19.5694,1.643523945954712
19.5692,1.643523945954712
19.569,1.647202257678129
19.5688,1.647202257678129
19.5686,1.643523945954712
19.5684,1.643523945954712
19.5682,1.643523945954712
19.568,1.643523945954712
19.5678,1.643523945954712
19.5676,1.643523945954712
19.5674,1.643523945954712
19.5672,1.643523945954712
19.567,1.647202257678129
19.5668,1.647202257678129
19.5666,1.647202257678129
19.5664,1.647202257678129
19.5662,1.650880569401546
19.566,1.654558881124963
19.5658,1.654558881124963
19.5656,1.654558881124963
19.5654,1.654558881124963
19.5652,1.65823719284838
19.565,1.65823719284838
19.5648,1.65823719284838
19.5646,1.661915504571797
19.5644,1.661915504571797
19.5642,1.661915504571797
19.564,1.665593816295214
19.5638,1.665593816295214
19.5636,1.665593816295214
19.5634,1.665593816295214
19.5632,1.665593816295214
19.563,1.669272128018631
19.5628,1.669272128018631
19.5626,1.669272128018631
19.5624,1.669272128018631
19.5622,1.669272128018631
19.562,1.669272128018631
19.5618,1.669272128018631
19.5616,1.669272128018631
19.5614,1.669272128018631
19.5612,1.669272128018631
19.561,1.669272128018631
19.5608,1.665593816295214
19.5606,1.665593816295214
19.5604,1.665593816295214
19.5602,1.665593816295214
19.56,1.661915504571797
19.5598,1.661915504571797
19.5596,1.65823719284838
19.5594,1.654558881124963
19.5592,1.654558881124963
19.559,1.650880569401546
19.5588,1.650880569401546
19.5586,1.647202257678129
19.5584,1.647202257678129
19.5582,1.647202257678129
19.558,1.643523945954712
19.5578,1.643523945954712
19.5576,1.643523945954712
19.5574,1.643523945954712
19.5572,1.643523945954712
19.557,1.643523945954712
19.5568,1.643523945954712
19.5566,1.643523945954712
19.5564,1.639845634231295
19.5562,1.643523945954712
19.556,1.643523945954712
19.5558,1.643523945954712
19.5556,1.639845634231295
19.5554,1.643523945954712
19.5552,1.643523945954712
19.555,1.639845634231295
19.5548,1.639845634231295
19.5546,1.643523945954712
19.5544,1.643523945954712
19.5542,1.643523945954712
19.554,1.643523945954712
19.5538,1.643523945954712
19.5536,1.643523945954712
19.5534,1.643523945954712
19.5532,1.643523945954712
19.553,1.643523945954712
19.5528,1.643523945954712
19.5526,1.647202257678129
19.5524,1.643523945954712
19.5522,1.647202257678129
19.552,1.647202257678129
19.5518,1.647202257678129
19.5516,1.647202257678129
19.5514,1.647202257678129
19.5512,1.647202257678129
19.551,1.650880569401546
19.5508,1.650880569401546
19.5506,1.650880569401546
19.5504,1.650880569401546
19.5502,1.650880569401546
19.55,1.650880569401546
19.5498,1.654558881124963
19.5496,1.654558881124963
19.5494,1.654558881124963
19.5492,1.654558881124963
19.549,1.654558881124963
19.5488,1.65823719284838
19.5486,1.65823719284838
19.5484,1.65823719284838
19.5482,1.65823719284838
19.548,1.65823719284838
19.5478,1.65823719284838
19.5476,1.65823719284838
19.5474,1.65823719284838
19.5472,1.65823719284838
19.547,1.65823719284838
19.5468,1.65823719284838
19.5466,1.65823719284838
19.5464,1.65823719284838
19.5462,1.65823719284838
19.546,1.65823719284838
19.5458,1.65823719284838
19.5456,1.65823719284838
19.5454,1.65823719284838
19.5452,1.65823719284838
19.545,1.654558881124963
19.5448,1.65823719284838
19.5446,1.65823719284838
19.5444,1.65823719284838
19.5442,1.65823719284838
19.544,1.65823719284838
19.5438,1.65823719284838
19.5436,1.65823719284838
19.5434,1.661915504571797
19.5432,1.661915504571797
19.543,1.661915504571797
19.5428,1.661915504571797
19.5426,1.661915504571797
19.5424,1.661915504571797
19.5422,1.661915504571797
19.542,1.661915504571797
19.5418,1.661915504571797
19.5416,1.661915504571797
19.5414,1.661915504571797
19.5412,1.661915504571797
19.541,1.661915504571797
19.5408,1.661915504571797
19.5406,1.661915504571797
19.5404,1.661915504571797
19.5402,1.661915504571797
19.54,1.661915504571797
19.5398,1.65823719284838
19.5396,1.65823719284838
19.5394,1.65823719284838
19.5392,1.65823719284838
19.539,1.65823719284838
19.5388,1.654558881124963
19.5386,1.654558881124963
19.5384,1.654558881124963
19.5382,1.654558881124963
19.538,1.650880569401546
19.5378,1.650880569401546
19.5376,1.650880569401546
19.5374,1.650880569401546
19.5372,1.650880569401546
19.537,1.654558881124963
19.5368,1.650880569401546
19.5366,1.654558881124963
19.5364,1.654558881124963
19.5362,1.654558881124963
19.536,1.654558881124963
19.5358,1.654558881124963
19.5356,1.654558881124963
19.5354,1.654558881124963
19.5352,1.654558881124963
19.535,1.654558881124963
19.5348,1.654558881124963
19.5346,1.654558881124963
19.5344,1.654558881124963
19.5342,1.650880569401546
19.534,1.654558881124963
19.5338,1.650880569401546
19.5336,1.650880569401546
19.5334,1.650880569401546
19.5332,1.650880569401546
19.533,1.650880569401546
19.5328,1.654558881124963
19.5326,1.654558881124963
19.5324,1.654558881124963
19.5322,1.654558881124963
19.532,1.654558881124963
19.5318,1.654558881124963
19.5316,1.654558881124963
19.5314,1.65823719284838
19.5312,1.65823719284838
19.531,1.65823719284838
19.5308,1.661915504571797
19.5306,1.661915504571797
19.5304,1.661915504571797
19.5302,1.661915504571797
19.53,1.661915504571797
19.5298,1.65823719284838
19.5296,1.65823719284838
19.5294,1.65823719284838
19.5292,1.654558881124963
19.529,1.654558881124963
19.5288,1.654558881124963
19.5286,1.654558881124963
19.5284,1.650880569401546
19.5282,1.650880569401546
19.528,1.650880569401546
19.5278,1.650880569401546
19.5276,1.654558881124963
19.5274,1.654558881124963
19.5272,1.654558881124963
19.527,1.654558881124963
19.5268,1.654558881124963
19.5266,1.654558881124963
19.5264,1.654558881124963
19.5262,1.654558881124963
19.526,1.654558881124963
19.5258,1.654558881124963
19.5256,1.654558881124963
19.5254,1.654558881124963
19.5252,1.654558881124963
19.525,1.654558881124963
19.5248,1.654558881124963
19.5246,1.654558881124963
19.5244,1.654558881124963
19.5242,1.650880569401546
19.524,1.650880569401546
19.5238,1.650880569401546
19.5236,1.650880569401546
19.5234,1.650880569401546
19.5232,1.650880569401546
19.523,1.647202257678129
19.5228,1.647202257678129
19.5226,1.647202257678129
19.5224,1.647202257678129
19.5222,1.647202257678129
19.522,1.643523945954712
19.5218,1.643523945954712
19.5216,1.643523945954712
19.5214,1.639845634231295
19.5212,1.643523945954712
19.521,1.639845634231295
19.5208,1.639845634231295
19.5206,1.639845634231295
19.5204,1.639845634231295
19.5202,1.639845634231295
19.52,1.639845634231295
19.5198,1.639845634231295
19.5196,1.639845634231295
19.5194,1.636167322507877
19.5192,1.636167322507877
19.519,1.636167322507877
19.5188,1.636167322507877
19.5186,1.636167322507877
19.5184,1.636167322507877
19.5182,1.636167322507877
19.518,1.636167322507877
19.5178,1.636167322507877
19.5176,1.636167322507877
19.5174,1.639845634231295
19.5172,1.636167322507877
19.517,1.636167322507877
19.5168,1.636167322507877
19.5166,1.636167322507877
19.5164,1.636167322507877
19.5162,1.636167322507877
19.516,1.636167322507877
19.5158,1.636167322507877
19.5156,1.636167322507877
19.5154,1.636167322507877
19.5152,1.636167322507877
19.515,1.63248901078446
19.5148,1.636167322507877
19.5146,1.63248901078446
19.5144,1.636167322507877
19.5142,1.636167322507877
19.514,1.636167322507877
19.5138,1.636167322507877
19.5136,1.636167322507877
19.5134,1.636167322507877
19.5132,1.636167322507877
19.513,1.636167322507877
19.5128,1.639845634231295
19.5126,1.639845634231295
19.5124,1.639845634231295
19.5122,1.643523945954712
19.512,1.643523945954712
19.5118,1.643523945954712
19.5116,1.643523945954712
19.5114,1.647202257678129
19.5112,1.647202257678129
19.511,1.647202257678129
19.5108,1.647202257678129
19.5106,1.647202257678129
19.5104,1.647202257678129
19.5102,1.647202257678129
19.51,1.647202257678129
19.5098,1.647202257678129
19.5096,1.647202257678129
19.5094,1.650880569401546
19.5092,1.647202257678129
19.509,1.647202257678129
19.5088,1.650880569401546
19.5086,1.650880569401546
19.5084,1.650880569401546
19.5082,1.650880569401546
19.508,1.654558881124963
19.5078,1.654558881124963
19.5076,1.654558881124963
19.5074,1.654558881124963
19.5072,1.65823719284838
19.507,1.65823719284838
19.5068,1.65823719284838
19.5066,1.661915504571797
19.5064,1.661915504571797
19.5062,1.661915504571797
19.506,1.665593816295214
19.5058,1.665593816295214
19.5056,1.665593816295214
19.5054,1.665593816295214
19.5052,1.669272128018631
19.505,1.669272128018631
19.5048,1.669272128018631
19.5046,1.669272128018631
19.5044,1.669272128018631
19.5042,1.672950439742048
19.504,1.672950439742048
19.5038,1.672950439742048
19.5036,1.672950439742048
19.5034,1.676628751465466
19.5032,1.676628751465466
19.503,1.676628751465466
19.5028,1.676628751465466
19.5026,1.676628751465466
19.5024,1.676628751465466
19.5022,1.676628751465466
19.502,1.676628751465466
19.5018,1.676628751465466
19.5016,1.676628751465466
19.5014,1.676628751465466
19.5012,1.676628751465466
19.501,1.676628751465466
19.5008,1.676628751465466
19.5006,1.676628751465466
19.5004,1.676628751465466
19.5002,1.672950439742048
19.5,1.672950439742048
19.4998,1.672950439742048
19.4996,1.672950439742048
19.4994,1.669272128018631
19.4992,1.669272128018631
19.499,1.665593816295214
19.4988,1.665593816295214
19.4986,1.665593816295214
19.4984,1.661915504571797
19.4982,1.661915504571797
19.498,1.65823719284838
19.4978,1.65823719284838
19.4976,1.654558881124963
19.4974,1.654558881124963
19.4972,1.650880569401546
19.497,1.647202257678129
19.4968,1.647202257678129
19.4966,1.647202257678129
19.4964,1.643523945954712
19.4962,1.643523945954712
19.496,1.643523945954712
19.4958,1.643523945954712
19.4956,1.639845634231295
19.4954,1.643523945954712
19.4952,1.639845634231295
19.495,1.639845634231295
19.4948,1.639845634231295
19.4946,1.639845634231295
19.4944,1.639845634231295
19.4942,1.639845634231295
19.494,1.639845634231295
19.4938,1.639845634231295
19.4936,1.636167322507877
19.4934,1.636167322507877
19.4932,1.636167322507877
19.493,1.636167322507877
19.4928,1.636167322507877
19.4926,1.636167322507877
19.4924,1.636167322507877
19.4922,1.636167322507877
19.492,1.636167322507877
19.4918,1.636167322507877
19.4916,1.636167322507877
19.4914,1.63248901078446
19.4912,1.63248901078446
19.491,1.63248901078446
19.4908,1.63248901078446
19.4906,1.63248901078446
19.4904,1.63248901078446
19.4902,1.63248901078446
19.49,1.636167322507877
19.4898,1.636167322507877
19.4896,1.639845634231295
19.4894,1.643523945954712
19.4892,1.647202257678129
19.489,1.647202257678129
19.4888,1.647202257678129
19.4886,1.650880569401546
19.4884,1.650880569401546
19.4882,1.650880569401546
19.488,1.654558881124963
19.4878,1.654558881124963
19.4876,1.654558881124963
19.4874,1.65823719284838
19.4872,1.65823719284838
19.487,1.65823719284838
19.4868,1.65823719284838
19.4866,1.661915504571797
19.4864,1.65823719284838
19.4862,1.661915504571797
19.486,1.65823719284838
19.4858,1.65823719284838
19.4856,1.661915504571797
19.4854,1.661915504571797
19.4852,1.65823719284838
19.485,1.65823719284838
19.4848,1.65823719284838
19.4846,1.65823719284838
19.4844,1.65823719284838
19.4842,1.65823719284838
19.484,1.65823719284838
19.4838,1.65823719284838
19.4836,1.661915504571797
19.4834,1.65823719284838
19.4832,1.65823719284838
19.483,1.65823719284838
19.4828,1.65823719284838
19.4826,1.65823719284838
19.4824,1.661915504571797
19.4822,1.661915504571797
19.482,1.661915504571797
19.4818,1.661915504571797
19.4816,1.661915504571797
19.4814,1.661915504571797
19.4812,1.661915504571797
19.481,1.665593816295214
19.4808,1.661915504571797
19.4806,1.665593816295214
19.4804,1.661915504571797
19.4802,1.661915504571797
19.48,1.661915504571797
19.4798,1.661915504571797
19.4796,1.661915504571797
19.4794,1.65823719284838
19.4792,1.65823719284838
19.479,1.65823719284838
19.4788,1.65823719284838
19.4786,1.65823719284838
19.4784,1.65823719284838
19.4782,1.654558881124963
19.478,1.654558881124963
19.4778,1.654558881124963
19.4776,1.654558881124963
19.4774,1.654558881124963
19.4772,1.654558881124963
19.477,1.654558881124963
19.4768,1.654558881124963
19.4766,1.654558881124963
19.4764,1.650880569401546
19.4762,1.654558881124963
19.476,1.654558881124963
19.4758,1.654558881124963
19.4756,1.654558881124963
19.4754,1.654558881124963
19.4752,1.654558881124963
19.475,1.654558881124963
19.4748,1.650880569401546
19.4746,1.650880569401546
19.4744,1.654558881124963
19.4742,1.650880569401546
19.474,1.654558881124963
19.4738,1.654558881124963
19.4736,1.654558881124963
19.4734,1.654558881124963
19.4732,1.654558881124963
19.473,1.654558881124963
19.4728,1.654558881124963
19.4726,1.654558881124963
19.4724,1.65823719284838
19.4722,1.65823719284838
19.472,1.654558881124963
19.4718,1.65823719284838
19.4716,1.65823719284838
19.4714,1.65823719284838
19.4712,1.65823719284838
19.471,1.65823719284838
19.4708,1.65823719284838
19.4706,1.65823719284838
19.4704,1.65823719284838
19.4702,1.661915504571797
19.47,1.661915504571797
19.4698,1.661915504571797
19.4696,1.661915504571797
19.4694,1.661915504571797
19.4692,1.661915504571797
19.469,1.661915504571797
19.4688,1.661915504571797
19.4686,1.661915504571797
19.4684,1.661915504571797
19.4682,1.661915504571797
19.468,1.661915504571797
19.4678,1.661915504571797
19.4676,1.661915504571797
19.4674,1.665593816295214
19.4672,1.665593816295214
19.467,1.665593816295214
19.4668,1.665593816295214
19.4666,1.665593816295214
19.4664,1.665593816295214
19.4662,1.665593816295214
19.466,1.665593816295214
19.4658,1.661915504571797
19.4656,1.661915504571797
19.4654,1.661915504571797
19.4652,1.661915504571797
19.465,1.661915504571797
19.4648,1.661915504571797
19.4646,1.661915504571797
19.4644,1.661915504571797
19.4642,1.661915504571797
19.464,1.661915504571797
19.4638,1.661915504571797
19.4636,1.661915504571797
19.4634,1.65823719284838
19.4632,1.65823719284838
19.463,1.65823719284838
19.4628,1.654558881124963
19.4626,1.654558881124963
19.4624,1.654558881124963
19.4622,1.654558881124963
19.462,1.650880569401546
19.4618,1.650880569401546
19.4616,1.647202257678129
19.4614,1.647202257678129
19.4612,1.647202257678129
19.461,1.643523945954712
19.4608,1.643523945954712
19.4606,1.643523945954712
19.4604,1.639845634231295
19.4602,1.636167322507877
19.46,1.636167322507877
19.4598,1.63248901078446
19.4596,1.628810699061043
19.4594,1.628810699061043
19.4592,1.628810699061043
19.459,1.625132387337626
19.4588,1.625132387337626
19.4586,1.625132387337626
19.4584,1.625132387337626
19.4582,1.625132387337626
19.458,1.625132387337626
19.4578,1.625132387337626
19.4576,1.625132387337626
19.4574,1.625132387337626
19.4572,1.625132387337626
19.457,1.625132387337626
19.4568,1.625132387337626
19.4566,1.625132387337626
19.4564,1.625132387337626
19.4562,1.625132387337626
19.456,1.625132387337626
19.4558,1.625132387337626
19.4556,1.625132387337626
19.4554,1.625132387337626
19.4552,1.625132387337626
19.455,1.625132387337626
19.4548,1.625132387337626
19.4546,1.625132387337626
19.4544,1.625132387337626
19.4542,1.625132387337626
19.454,1.628810699061043
19.4538,1.628810699061043
19.4536,1.628810699061043
19.4534,1.628810699061043
19.4532,1.628810699061043
19.453,1.628810699061043
19.4528,1.63248901078446
19.4526,1.63248901078446
19.4524,1.636167322507877
19.4522,1.636167322507877
19.452,1.639845634231295
19.4518,1.643523945954712
19.4516,1.643523945954712
19.4514,1.647202257678129
19.4512,1.650880569401546
19.451,1.654558881124963
19.4508,1.654558881124963
19.4506,1.65823719284838
19.4504,1.65823719284838
19.4502,1.661915504571797
19.45,1.665593816295214
19.4498,1.665593816295214
19.4496,1.665593816295214
19.4494,1.669272128018631
19.4492,1.669272128018631
19.449,1.672950439742048
19.4488,1.672950439742048
19.4486,1.676628751465466
19.4484,1.676628751465466
19.4482,1.676628751465466
19.448,1.676628751465466
19.4478,1.676628751465466
19.4476,1.680307063188883
19.4474,1.680307063188883
19.4472,1.680307063188883
19.447,1.680307063188883
19.4468,1.680307063188883
19.4466,1.6839853749123
19.4464,1.680307063188883
19.4462,1.6839853749123
19.446,1.680307063188883
19.4458,1.6839853749123
19.4456,1.680307063188883
19.4454,1.680307063188883
19.4452,1.680307063188883
19.445,1.680307063188883
19.4448,1.680307063188883
19.4446,1.680307063188883
19.4444,1.680307063188883
19.4442,1.680307063188883
19.444,1.680307063188883
19.4438,1.676628751465466
19.4436,1.676628751465466
19.4434,1.676628751465466
19.4432,1.676628751465466
19.443,1.672950439742048
19.4428,1.672950439742048
19.4426,1.672950439742048
19.4424,1.672950439742048
19.4422,1.669272128018631
19.442,1.669272128018631
19.4418,1.669272128018631
19.4416,1.665593816295214
19.4414,1.665593816295214
19.4412,1.665593816295214
19.441,1.665593816295214
19.4408,1.661915504571797
19.4406,1.661915504571797
19.4404,1.65823719284838
19.4402,1.65823719284838
19.44,1.65823719284838
19.4398,1.654558881124963
19.4396,1.654558881124963
19.4394,1.654558881124963
19.4392,1.650880569401546
19.439,1.650880569401546
19.4388,1.647202257678129
19.4386,1.647202257678129
19.4384,1.647202257678129
19.4382,1.643523945954712
19.438,1.643523945954712
19.4378,1.643523945954712
19.4376,1.643523945954712
19.4374,1.643523945954712
19.4372,1.639845634231295
19.437,1.639845634231295
19.4368,1.636167322507877
19.4366,1.636167322507877
19.4364,1.636167322507877
19.4362,1.63248901078446
19.436,1.63248901078446
19.4358,1.63248901078446
19.4356,1.628810699061043
19.4354,1.628810699061043
19.4352,1.628810699061043
19.435,1.628810699061043
19.4348,1.628810699061043
19.4346,1.625132387337626
19.4344,1.628810699061043
19.4342,1.628810699061043
19.434,1.628810699061043
19.4338,1.628810699061043
19.4336,1.628810699061043
19.4334,1.63248901078446
19.4332,1.628810699061043
19.433,1.63248901078446
19.4328,1.63248901078446
19.4326,1.636167322507877
19.4324,1.636167322507877
19.4322,1.636167322507877
19.432,1.639845634231295
19.4318,1.643523945954712
19.4316,1.643523945954712
19.4314,1.647202257678129
19.4312,1.647202257678129
19.431,1.650880569401546
19.4308,1.654558881124963
19.4306,1.654558881124963
19.4304,1.654558881124963
19.4302,1.65823719284838
19.43,1.65823719284838
19.4298,1.661915504571797
19.4296,1.661915504571797
19.4294,1.665593816295214
19.4292,1.665593816295214
19.429,1.669272128018631
19.4288,1.669272128018631
19.4286,1.669272128018631
19.4284,1.669272128018631
19.4282,1.669272128018631
19.428,1.672950439742048
19.4278,1.672950439742048
19.4276,1.672950439742048
19.4274,1.669272128018631
19.4272,1.672950439742048
19.427,1.669272128018631
19.4268,1.669272128018631
19.4266,1.669272128018631
19.4264,1.669272128018631
19.4262,1.669272128018631
19.426,1.665593816295214
19.4258,1.665593816295214
19.4256,1.665593816295214
19.4254,1.665593816295214
19.4252,1.665593816295214
19.425,1.665593816295214
19.4248,1.665593816295214
19.4246,1.661915504571797
19.4244,1.661915504571797
19.4242,1.661915504571797
19.424,1.661915504571797
19.4238,1.661915504571797
19.4236,1.65823719284838
19.4234,1.65823719284838
19.4232,1.65823719284838
19.423,1.65823719284838
19.4228,1.654558881124963
19.4226,1.654558881124963
19.4224,1.654558881124963
19.4222,1.650880569401546
19.422,1.650880569401546
19.4218,1.650880569401546
19.4216,1.647202257678129
19.4214,1.647202257678129
19.4212,1.647202257678129
19.421,1.647202257678129
19.4208,1.643523945954712
19.4206,1.643523945954712
19.4204,1.643523945954712
19.4202,1.643523945954712
19.42,1.643523945954712
19.4198,1.643523945954712
19.4196,1.639845634231295
19.4194,1.639845634231295
19.4192,1.636167322507877
19.419,1.639845634231295
19.4188,1.636167322507877
19.4186,1.636167322507877
19.4184,1.636167322507877
19.4182,1.636167322507877
19.418,1.636167322507877
19.4178,1.636167322507877
19.4176,1.636167322507877
19.4174,1.636167322507877
19.4172,1.636167322507877
19.417,1.636167322507877
19.4168,1.636167322507877
19.4166,1.636167322507877
19.4164,1.636167322507877
19.4162,1.636167322507877
19.416,1.636167322507877
19.4158,1.636167322507877
19.4156,1.636167322507877
19.4154,1.636167322507877
19.4152,1.636167322507877
19.415,1.636167322507877
19.4148,1.639845634231295
19.4146,1.639845634231295
19.4144,1.639845634231295
19.4142,1.639845634231295
19.414,1.643523945954712
19.4138,1.643523945954712
19.4136,1.647202257678129
19.4134,1.647202257678129
19.4132,1.647202257678129
19.413,1.647202257678129
19.4128,1.647202257678129
19.4126,1.650880569401546
19.4124,1.650880569401546
19.4122,1.650880569401546
19.412,1.650880569401546
19.4118,1.654558881124963
19.4116,1.654558881124963
19.4114,1.654558881124963
19.4112,1.654558881124963
19.411,1.654558881124963
19.4108,1.654558881124963
19.4106,1.654558881124963
19.4104,1.654558881124963
19.4102,1.65823719284838
19.41,1.65823719284838
19.4098,1.65823719284838
19.4096,1.65823719284838
19.4094,1.65823719284838
19.4092,1.65823719284838
19.409,1.65823719284838
19.4088,1.661915504571797
19.4086,1.661915504571797
19.4084,1.661915504571797
19.4082,1.661915504571797
19.408,1.661915504571797
19.4078,1.661915504571797
19.4076,1.661915504571797
19.4074,1.65823719284838
19.4072,1.65823719284838
19.407,1.65823719284838
19.4068,1.65823719284838
19.4066,1.65823719284838
19.4064,1.65823719284838
19.4062,1.65823719284838
19.406,1.65823719284838
19.4058,1.654558881124963
19.4056,1.654558881124963
19.4054,1.654558881124963
19.4052,1.654558881124963
19.405,1.654558881124963
19.4048,1.654558881124963
19.4046,1.650880569401546
19.4044,1.650880569401546
19.4042,1.650880569401546
19.404,1.650880569401546
19.4038,1.650880569401546
19.4036,1.650880569401546
19.4034,1.650880569401546
19.4032,1.647202257678129
19.403,1.647202257678129
19.4028,1.647202257678129
19.4026,1.643523945954712
19.4024,1.643523945954712
19.4022,1.643523945954712
19.402,1.639845634231295
19.4018,1.639845634231295
19.4016,1.636167322507877
19.4014,1.636167322507877
19.4012,1.636167322507877
19.401,1.636167322507877
19.4008,1.63248901078446
19.4006,1.63248901078446
19.4004,1.63248901078446
19.4002,1.63248901078446
19.4,1.63248901078446
19.3998,1.63248901078446
19.3996,1.63248901078446
19.3994,1.63248901078446
19.3992,1.63248901078446
19.399,1.63248901078446
19.3988,1.63248901078446
19.3986,1.63248901078446
19.3984,1.63248901078446
19.3982,1.636167322507877
19.398,1.636167322507877
19.3978,1.636167322507877
19.3976,1.636167322507877
19.3974,1.636167322507877
19.3972,1.639845634231295
19.397,1.639845634231295
19.3968,1.639845634231295
19.3966,1.639845634231295
19.3964,1.639845634231295
19.3962,1.639845634231295
19.396,1.639845634231295
19.3958,1.643523945954712
19.3956,1.643523945954712
19.3954,1.639845634231295
19.3952,1.643523945954712
19.395,1.639845634231295
19.3948,1.639845634231295
19.3946,1.639845634231295
19.3944,1.639845634231295
19.3942,1.639845634231295
19.394,1.639845634231295
19.3938,1.639845634231295
19.3936,1.639845634231295
19.3934,1.639845634231295
19.3932,1.639845634231295
19.393,1.639845634231295
19.3928,1.639845634231295
19.3926,1.639845634231295
19.3924,1.643523945954712
19.3922,1.643523945954712
19.392,1.643523945954712
19.3918,1.647202257678129
19.3916,1.647202257678129
19.3914,1.647202257678129
19.3912,1.650880569401546
19.391,1.650880569401546
19.3908,1.650880569401546
19.3906,1.650880569401546
19.3904,1.654558881124963
19.3902,1.654558881124963
19.39,1.654558881124963
19.3898,1.65823719284838
19.3896,1.661915504571797
19.3894,1.661915504571797
19.3892,1.665593816295214
19.389,1.665593816295214
19.3888,1.669272128018631
19.3886,1.669272128018631
19.3884,1.672950439742048
19.3882,1.672950439742048
19.388,1.676628751465466
19.3878,1.680307063188883
19.3876,1.680307063188883
19.3874,1.680307063188883
19.3872,1.6839853749123
19.387,1.6839853749123
19.3868,1.6839853749123
19.3866,1.6839853749123
19.3864,1.687663686635717
19.3862,1.687663686635717
19.386,1.687663686635717
19.3858,1.687663686635717
19.3856,1.687663686635717
19.3854,1.687663686635717
19.3852,1.687663686635717
19.385,1.687663686635717
19.3848,1.6839853749123
19.3846,1.6839853749123
19.3844,1.6839853749123
19.3842,1.680307063188883
19.384,1.680307063188883
19.3838,1.676628751465466
19.3836,1.676628751465466
19.3834,1.672950439742048
19.3832,1.669272128018631
19.383,1.669272128018631
19.3828,1.665593816295214
19.3826,1.661915504571797
19.3824,1.65823719284838
19.3822,1.654558881124963
19.382,1.650880569401546
19.3818,1.647202257678129
19.3816,1.643523945954712
19.3814,1.639845634231295
19.3812,1.636167322507877
19.381,1.63248901078446
19.3808,1.628810699061043
19.3806,1.628810699061043
19.3804,1.625132387337626
19.3802,1.625132387337626
19.38,1.625132387337626
19.3798,1.625132387337626
19.3796,1.625132387337626
19.3794,1.625132387337626
19.3792,1.625132387337626
19.379,1.628810699061043
19.3788,1.628810699061043
19.3786,1.628810699061043
19.3784,1.63248901078446
19.3782,1.63248901078446
19.378,1.63248901078446
19.3778,1.636167322507877
19.3776,1.636167322507877
19.3774,1.636167322507877
19.3772,1.636167322507877
19.377,1.636167322507877
19.3768,1.639845634231295
19.3766,1.639845634231295
19.3764,1.639845634231295
19.3762,1.639845634231295
19.376,1.639845634231295
19.3758,1.643523945954712
19.3756,1.639845634231295
19.3754,1.639845634231295
19.3752,1.639845634231295
19.375,1.639845634231295
19.3748,1.636167322507877
19.3746,1.636167322507877
19.3744,1.636167322507877
19.3742,1.63248901078446
19.374,1.63248901078446
19.3738,1.63248901078446
19.3736,1.628810699061043
19.3734,1.628810699061043
19.3732,1.628810699061043
19.373,1.628810699061043
19.3728,1.628810699061043
19.3726,1.628810699061043
19.3724,1.628810699061043
19.3722,1.628810699061043
19.372,1.628810699061043
19.3718,1.628810699061043
19.3716,1.628810699061043
19.3714,1.63248901078446
19.3712,1.63248901078446
19.371,1.636167322507877
19.3708,1.63248901078446
19.3706,1.63248901078446
19.3704,1.636167322507877
19.3702,1.636167322507877
19.37,1.636167322507877
19.3698,1.636167322507877
19.3696,1.639845634231295
19.3694,1.639845634231295
19.3692,1.639845634231295
19.369,1.639845634231295
19.3688,1.643523945954712
19.3686,1.643523945954712
19.3684,1.643523945954712
19.3682,1.643523945954712
19.368,1.643523945954712
19.3678,1.643523945954712
19.3676,1.643523945954712
19.3674,1.647202257678129
19.3672,1.647202257678129
19.367,1.647202257678129
19.3668,1.647202257678129
19.3666,1.650880569401546
19.3664,1.650880569401546
19.3662,1.650880569401546
19.366,1.650880569401546
19.3658,1.650880569401546
19.3656,1.650880569401546
19.3654,1.650880569401546
19.3652,1.650880569401546
19.365,1.650880569401546
19.3648,1.650880569401546
19.3646,1.650880569401546
19.3644,1.650880569401546
19.3642,1.650880569401546
19.364,1.650880569401546
19.3638,1.650880569401546
19.3636,1.650880569401546
19.3634,1.650880569401546
19.3632,1.647202257678129
19.363,1.647202257678129
19.3628,1.647202257678129
19.3626,1.647202257678129
19.3624,1.647202257678129
19.3622,1.643523945954712
19.362,1.643523945954712
19.3618,1.643523945954712
19.3616,1.643523945954712
19.3614,1.643523945954712
19.3612,1.643523945954712
19.361,1.639845634231295
19.3608,1.639845634231295
19.3606,1.639845634231295
19.3604,1.639845634231295
19.3602,1.639845634231295
19.36,1.639845634231295
19.3598,1.639845634231295
19.3596,1.636167322507877
19.3594,1.636167322507877
19.3592,1.636167322507877
19.359,1.636167322507877
19.3588,1.636167322507877
19.3586,1.636167322507877
19.3584,1.636167322507877
19.3582,1.63248901078446
19.358,1.63248901078446
19.3578,1.63248901078446
19.3576,1.63248901078446
19.3574,1.63248901078446
19.3572,1.63248901078446
19.357,1.628810699061043
19.3568,1.628810699061043
19.3566,1.628810699061043
19.3564,1.628810699061043
19.3562,1.628810699061043
19.356,1.628810699061043
19.3558,1.628810699061043
19.3556,1.628810699061043
19.3554,1.628810699061043
19.3552,1.628810699061043
19.355,1.628810699061043
19.3548,1.628810699061043
19.3546,1.628810699061043
19.3544,1.628810699061043
19.3542,1.628810699061043
19.354,1.628810699061043
19.3538,1.628810699061043
19.3536,1.628810699061043
19.3534,1.63248901078446
19.3532,1.63248901078446
19.353,1.63248901078446
19.3528,1.636167322507877
19.3526,1.636167322507877
19.3524,1.639845634231295
19.3522,1.639845634231295
19.352,1.639845634231295
19.3518,1.639845634231295
19.3516,1.643523945954712
19.3514,1.639845634231295
19.3512,1.639845634231295
19.351,1.643523945954712
19.3508,1.643523945954712
19.3506,1.643523945954712
19.3504,1.647202257678129
19.3502,1.647202257678129
19.35,1.647202257678129
19.3498,1.647202257678129
19.3496,1.650880569401546
19.3494,1.650880569401546
19.3492,1.650880569401546
19.349,1.650880569401546
19.3488,1.654558881124963
19.3486,1.654558881124963
19.3484,1.65823719284838
19.3482,1.65823719284838
19.348,1.65823719284838
19.3478,1.661915504571797
19.3476,1.661915504571797
19.3474,1.661915504571797
19.3472,1.661915504571797
19.347,1.665593816295214
19.3468,1.665593816295214
19.3466,1.665593816295214
19.3464,1.669272128018631
19.3462,1.669272128018631
19.346,1.669272128018631
19.3458,1.669272128018631
19.3456,1.669272128018631
19.3454,1.669272128018631
19.3452,1.669272128018631
19.345,1.669272128018631
19.3448,1.669272128018631
19.3446,1.669272128018631
19.3444,1.669272128018631
19.3442,1.669272128018631
19.344,1.669272128018631
19.3438,1.669272128018631
19.3436,1.665593816295214
19.3434,1.665593816295214
19.3432,1.665593816295214
19.343,1.665593816295214
19.3428,1.665593816295214
19.3426,1.661915504571797
19.3424,1.661915504571797
19.3422,1.65823719284838
19.342,1.65823719284838
19.3418,1.65823719284838
19.3416,1.654558881124963
19.3414,1.654558881124963
19.3412,1.650880569401546
19.341,1.647202257678129
19.3408,1.647202257678129
19.3406,1.643523945954712
19.3404,1.643523945954712
19.3402,1.639845634231295
19.34,1.636167322507877
19.3398,1.636167322507877
19.3396,1.63248901078446
19.3394,1.63248901078446
19.3392,1.63248901078446
19.339,1.628810699061043
19.3388,1.628810699061043
19.3386,1.625132387337626
19.3384,1.625132387337626
19.3382,1.625132387337626
19.338,1.621454075614209
19.3378,1.621454075614209
19.3376,1.621454075614209
19.3374,1.621454075614209
19.3372,1.617775763890792
19.337,1.617775763890792
19.3368,1.617775763890792
19.3366,1.617775763890792
19.3364,1.617775763890792
19.3362,1.621454075614209
19.336,1.621454075614209
19.3358,1.621454075614209
19.3356,1.621454075614209
19.3354,1.621454075614209
19.3352,1.621454075614209
19.335,1.625132387337626
19.3348,1.625132387337626
19.3346,1.625132387337626
19.3344,1.628810699061043
19.3342,1.628810699061043
19.334,1.628810699061043
19.3338,1.628810699061043
19.3336,1.63248901078446
19.3334,1.63248901078446
19.3332,1.63248901078446
19.333,1.63248901078446
19.3328,1.636167322507877
19.3326,1.636167322507877
19.3324,1.639845634231295
19.3322,1.639845634231295
19.332,1.643523945954712
19.3318,1.643523945954712
19.3316,1.643523945954712
19.3314,1.647202257678129
19.3312,1.647202257678129
19.331,1.647202257678129
19.3308,1.650880569401546
19.3306,1.650880569401546
19.3304,1.650880569401546
19.3302,1.650880569401546
19.33,1.654558881124963
19.3298,1.654558881124963
19.3296,1.654558881124963
19.3294,1.654558881124963
19.3292,1.65823719284838
19.329,1.654558881124963
19.3288,1.654558881124963
19.3286,1.654558881124963
19.3284,1.654558881124963
19.3282,1.654558881124963
19.328,1.654558881124963
19.3278,1.654558881124963
19.3276,1.654558881124963
19.3274,1.654558881124963
19.3272,1.650880569401546
19.327,1.654558881124963
19.3268,1.654558881124963
19.3266,1.654558881124963
19.3264,1.654558881124963
19.3262,1.654558881124963
19.326,1.65823719284838
19.3258,1.65823719284838
19.3256,1.65823719284838
19.3254,1.65823719284838
19.3252,1.65823719284838
19.325,1.661915504571797
19.3248,1.661915504571797
19.3246,1.661915504571797
19.3244,1.661915504571797
19.3242,1.661915504571797
19.324,1.661915504571797
19.3238,1.661915504571797
19.3236,1.661915504571797
19.3234,1.65823719284838
19.3232,1.65823719284838
19.323,1.65823719284838
19.3228,1.654558881124963
19.3226,1.654558881124963
19.3224,1.654558881124963
19.3222,1.654558881124963
19.322,1.654558881124963
19.3218,1.654558881124963
19.3216,1.654558881124963
19.3214,1.654558881124963
19.3212,1.654558881124963
19.321,1.654558881124963
19.3208,1.654558881124963
19.3206,1.654558881124963
19.3204,1.65823719284838
19.3202,1.65823719284838
19.32,1.65823719284838
19.3198,1.654558881124963
19.3196,1.654558881124963
19.3194,1.654558881124963
19.3192,1.654558881124963
19.319,1.654558881124963
19.3188,1.654558881124963
19.3186,1.650880569401546
19.3184,1.650880569401546
19.3182,1.650880569401546
19.318,1.650880569401546
19.3178,1.650880569401546
19.3176,1.650880569401546
19.3174,1.650880569401546
19.3172,1.647202257678129
19.317,1.647202257678129
19.3168,1.647202257678129
19.3166,1.647202257678129
19.3164,1.647202257678129
19.3162,1.647202257678129
19.316,1.647202257678129
19.3158,1.647202257678129
19.3156,1.647202257678129
19.3154,1.647202257678129
19.3152,1.647202257678129
19.315,1.647202257678129
19.3148,1.647202257678129
19.3146,1.647202257678129
19.3144,1.647202257678129
19.3142,1.650880569401546
19.314,1.650880569401546
19.3138,1.647202257678129
19.3136,1.647202257678129
19.3134,1.647202257678129
19.3132,1.650880569401546
19.313,1.650880569401546
19.3128,1.647202257678129
19.3126,1.650880569401546
19.3124,1.650880569401546
19.3122,1.650880569401546
19.312,1.654558881124963
19.3118,1.654558881124963
19.3116,1.654558881124963
19.3114,1.654558881124963
19.3112,1.654558881124963
19.311,1.65823719284838
19.3108,1.65823719284838
19.3106,1.65823719284838
19.3104,1.65823719284838
19.3102,1.65823719284838
19.31,1.661915504571797
19.3098,1.661915504571797
19.3096,1.661915504571797
19.3094,1.661915504571797
19.3092,1.661915504571797
19.309,1.665593816295214
19.3088,1.665593816295214
19.3086,1.665593816295214
19.3084,1.661915504571797
19.3082,1.665593816295214
19.308,1.665593816295214
19.3078,1.665593816295214
19.3076,1.665593816295214
19.3074,1.661915504571797
19.3072,1.665593816295214
19.307,1.665593816295214
19.3068,1.665593816295214
19.3066,1.665593816295214
19.3064,1.665593816295214
19.3062,1.661915504571797
19.306,1.661915504571797
19.3058,1.661915504571797
19.3056,1.661915504571797
19.3054,1.661915504571797
19.3052,1.65823719284838
19.305,1.65823719284838
19.3048,1.65823719284838
19.3046,1.654558881124963
19.3044,1.654558881124963
19.3042,1.654558881124963
19.304,1.654558881124963
19.3038,1.650880569401546
19.3036,1.650880569401546
19.3034,1.650880569401546
19.3032,1.650880569401546
19.303,1.647202257678129
19.3028,1.647202257678129
19.3026,1.647202257678129
19.3024,1.647202257678129
19.3022,1.643523945954712
19.302,1.643523945954712
19.3018,1.643523945954712
19.3016,1.643523945954712
19.3014,1.639845634231295
19.3012,1.639845634231295
19.301,1.639845634231295
19.3008,1.636167322507877
19.3006,1.636167322507877
19.3004,1.636167322507877
19.3002,1.636167322507877
19.3,1.636167322507877
19.2998,1.636167322507877
19.2996,1.636167322507877
19.2994,1.63248901078446
19.2992,1.63248901078446
19.299,1.63248901078446
19.2988,1.63248901078446
19.2986,1.63248901078446
19.2984,1.628810699061043
19.2982,1.628810699061043
19.298,1.628810699061043
19.2978,1.628810699061043
19.2976,1.628810699061043
19.2974,1.628810699061043
19.2972,1.628810699061043
19.297,1.628810699061043
19.2968,1.628810699061043
19.2966,1.628810699061043
19.2964,1.63248901078446
19.2962,1.63248901078446
19.296,1.63248901078446
19.2958,1.63248901078446
19.2956,1.636167322507877
19.2954,1.636167322507877
19.2952,1.636167322507877
19.295,1.636167322507877
19.2948,1.636167322507877
19.2946,1.636167322507877
19.2944,1.639845634231295
19.2942,1.639845634231295
19.294,1.639845634231295
19.2938,1.639845634231295
19.2936,1.643523945954712
19.2934,1.643523945954712
19.2932,1.643523945954712
19.293,1.647202257678129
19.2928,1.647202257678129
19.2926,1.647202257678129
19.2924,1.650880569401546
19.2922,1.650880569401546
19.292,1.650880569401546
19.2918,1.654558881124963
19.2916,1.654558881124963
19.2914,1.654558881124963
19.2912,1.65823719284838
19.291,1.65823719284838
19.2908,1.661915504571797
19.2906,1.665593816295214
19.2904,1.665593816295214
19.2902,1.669272128018631
19.29,1.669272128018631
19.2898,1.669272128018631
19.2896,1.672950439742048
19.2894,1.672950439742048
19.2892,1.672950439742048
19.289,1.676628751465466
19.2888,1.676628751465466
19.2886,1.676628751465466
19.2884,1.676628751465466
19.2882,1.676628751465466
19.288,1.680307063188883
19.2878,1.680307063188883
19.2876,1.680307063188883
19.2874,1.680307063188883
19.2872,1.680307063188883
19.287,1.680307063188883
19.2868,1.680307063188883
19.2866,1.676628751465466
19.2864,1.676628751465466
19.2862,1.676628751465466
19.286,1.676628751465466
19.2858,1.676628751465466
19.2856,1.676628751465466
19.2854,1.672950439742048
19.2852,1.672950439742048
19.285,1.669272128018631
19.2848,1.669272128018631
19.2846,1.669272128018631
19.2844,1.669272128018631
19.2842,1.669272128018631
19.284,1.669272128018631
19.2838,1.665593816295214
19.2836,1.669272128018631
19.2834,1.665593816295214
19.2832,1.665593816295214
19.283,1.665593816295214
19.2828,1.665593816295214
19.2826,1.665593816295214
19.2824,1.665593816295214
19.2822,1.665593816295214
19.282,1.661915504571797
19.2818,1.661915504571797
19.2816,1.661915504571797
19.2814,1.65823719284838
19.2812,1.65823719284838
19.281,1.654558881124963
19.2808,1.654558881124963
19.2806,1.650880569401546
19.2804,1.650880569401546
19.2802,1.647202257678129
19.28,1.643523945954712
19.2798,1.639845634231295
19.2796,1.636167322507877
19.2794,1.63248901078446
19.2792,1.628810699061043
19.279,1.625132387337626
19.2788,1.621454075614209
19.2786,1.617775763890792
19.2784,1.614097452167375
19.2782,1.614097452167375
19.278,1.606740828720541
19.2778,1.606740828720541
19.2776,1.603062516997124
19.2774,1.603062516997124
19.2772,1.599384205273707
19.277,1.599384205273707
19.2768,1.599384205273707
19.2766,1.599384205273707
19.2764,1.599384205273707
19.2762,1.599384205273707
19.276,1.599384205273707
19.2758,1.599384205273707
19.2756,1.599384205273707
19.2754,1.603062516997124
19.2752,1.603062516997124
19.275,1.603062516997124
19.2748,1.603062516997124
19.2746,1.603062516997124
19.2744,1.603062516997124
19.2742,1.603062516997124
19.274,1.603062516997124
19.2738,1.603062516997124
19.2736,1.606740828720541
19.2734,1.606740828720541
19.2732,1.610419140443958
19.273,1.614097452167375
19.2728,1.614097452167375
19.2726,1.617775763890792
19.2724,1.617775763890792
19.2722,1.621454075614209
19.272,1.621454075614209
19.2718,1.625132387337626
19.2716,1.625132387337626
19.2714,1.628810699061043
19.2712,1.63248901078446
19.271,1.63248901078446
19.2708,1.636167322507877
19.2706,1.636167322507877
19.2704,1.639845634231295
19.2702,1.639845634231295
19.27,1.643523945954712
19.2698,1.643523945954712
19.2696,1.643523945954712
19.2694,1.643523945954712
19.2692,1.647202257678129
19.269,1.647202257678129
19.2688,1.647202257678129
19.2686,1.647202257678129
19.2684,1.647202257678129
19.2682,1.647202257678129
19.268,1.647202257678129
19.2678,1.647202257678129
19.2676,1.647202257678129
19.2674,1.647202257678129
19.2672,1.647202257678129
19.267,1.647202257678129
19.2668,1.647202257678129
19.2666,1.647202257678129
19.2664,1.647202257678129
19.2662,1.647202257678129
19.266,1.647202257678129
19.2658,1.650880569401546
19.2656,1.650880569401546
19.2654,1.650880569401546
19.2652,1.650880569401546
19.265,1.650880569401546
19.2648,1.654558881124963
19.2646,1.650880569401546
19.2644,1.650880569401546
19.2642,1.650880569401546
19.264,1.650880569401546
19.2638,1.654558881124963
19.2636,1.654558881124963
19.2634,1.654558881124963
19.2632,1.654558881124963
19.263,1.654558881124963
19.2628,1.654558881124963
19.2626,1.654558881124963
19.2624,1.654558881124963
19.2622,1.654558881124963
19.262,1.654558881124963
19.2618,1.654558881124963
19.2616,1.654558881124963
19.2614,1.654558881124963
19.2612,1.654558881124963
19.261,1.654558881124963
19.2608,1.654558881124963
19.2606,1.650880569401546
19.2604,1.650880569401546
19.2602,1.650880569401546
19.26,1.650880569401546
19.2598,1.650880569401546
19.2596,1.650880569401546
19.2594,1.647202257678129
19.2592,1.647202257678129
19.259,1.647202257678129
19.2588,1.643523945954712
19.2586,1.643523945954712
19.2584,1.643523945954712
19.2582,1.643523945954712
19.258,1.639845634231295
19.2578,1.639845634231295
19.2576,1.639845634231295
19.2574,1.636167322507877
19.2572,1.639845634231295
19.257,1.636167322507877
19.2568,1.636167322507877
19.2566,1.636167322507877
19.2564,1.636167322507877
19.2562,1.636167322507877
19.256,1.636167322507877
19.2558,1.636167322507877
19.2556,1.636167322507877
19.2554,1.636167322507877
19.2552,1.636167322507877
19.255,1.636167322507877
19.2548,1.636167322507877
19.2546,1.639845634231295
19.2544,1.639845634231295
19.2542,1.639845634231295
19.254,1.639845634231295
19.2538,1.639845634231295
19.2536,1.639845634231295
19.2534,1.643523945954712
19.2532,1.643523945954712
19.253,1.643523945954712
19.2528,1.647202257678129
19.2526,1.647202257678129
19.2524,1.647202257678129
19.2522,1.650880569401546
19.252,1.650880569401546
19.2518,1.650880569401546
19.2516,1.650880569401546
19.2514,1.654558881124963
19.2512,1.654558881124963
19.251,1.654558881124963
19.2508,1.654558881124963
19.2506,1.654558881124963
19.2504,1.654558881124963
19.2502,1.65823719284838
19.25,1.65823719284838
19.2498,1.65823719284838
19.2496,1.661915504571797
19.2494,1.661915504571797
19.2492,1.661915504571797
19.249,1.661915504571797
19.2488,1.665593816295214
19.2486,1.665593816295214
19.2484,1.665593816295214
19.2482,1.665593816295214
19.248,1.669272128018631
19.2478,1.669272128018631
19.2476,1.672950439742048
19.2474,1.672950439742048
19.2472,1.672950439742048
19.247,1.672950439742048
19.2468,1.672950439742048
19.2466,1.676628751465466
19.2464,1.676628751465466
19.2462,1.676628751465466
19.246,1.676628751465466
19.2458,1.676628751465466
19.2456,1.676628751465466
19.2454,1.676628751465466
19.2452,1.676628751465466
19.245,1.676628751465466
19.2448,1.676628751465466
19.2446,1.676628751465466
19.2444,1.676628751465466
19.2442,1.676628751465466
19.244,1.676628751465466
19.2438,1.676628751465466
19.2436,1.672950439742048
19.2434,1.676628751465466
19.2432,1.672950439742048
19.243,1.672950439742048
19.2428,1.672950439742048
19.2426,1.672950439742048
19.2424,1.672950439742048
19.2422,1.672950439742048
19.242,1.669272128018631
19.2418,1.669272128018631
19.2416,1.669272128018631
19.2414,1.669272128018631
19.2412,1.669272128018631
19.241,1.669272128018631
19.2408,1.665593816295214
19.2406,1.665593816295214
19.2404,1.665593816295214
19.2402,1.665593816295214
19.24,1.665593816295214
19.2398,1.665593816295214
19.2396,1.665593816295214
19.2394,1.665593816295214
19.2392,1.665593816295214
19.239,1.665593816295214
19.2388,1.661915504571797
19.2386,1.661915504571797
19.2384,1.661915504571797
19.2382,1.661915504571797
19.238,1.661915504571797
19.2378,1.661915504571797
19.2376,1.65823719284838
19.2374,1.65823719284838
19.2372,1.654558881124963
19.237,1.654558881124963
19.2368,1.650880569401546
19.2366,1.650880569401546
19.2364,1.647202257678129
19.2362,1.647202257678129
19.236,1.643523945954712
19.2358,1.639845634231295
19.2356,1.639845634231295
19.2354,1.636167322507877
19.2352,1.63248901078446
19.235,1.63248901078446
19.2348,1.628810699061043
19.2346,1.625132387337626
19.2344,1.625132387337626
19.2342,1.621454075614209
19.234,1.621454075614209
19.2338,1.617775763890792
19.2336,1.617775763890792
19.2334,1.614097452167375
19.2332,1.614097452167375
19.233,1.614097452167375
19.2328,1.614097452167375
19.2326,1.614097452167375
19.2324,1.614097452167375
19.2322,1.614097452167375
19.232,1.614097452167375
19.2318,1.617775763890792
19.2316,1.621454075614209
19.2314,1.621454075614209
19.2312,1.621454075614209
19.231,1.625132387337626
19.2308,1.625132387337626
19.2306,1.625132387337626
19.2304,1.628810699061043
19.2302,1.628810699061043
19.23,1.628810699061043
19.2298,1.628810699061043
19.2296,1.63248901078446
19.2294,1.63248901078446
19.2292,1.636167322507877
19.229,1.636167322507877
19.2288,1.639845634231295
19.2286,1.639845634231295
19.2284,1.639845634231295
19.2282,1.643523945954712
19.228,1.647202257678129
19.2278,1.647202257678129
19.2276,1.647202257678129
19.2274,1.647202257678129
19.2272,1.647202257678129
19.227,1.647202257678129
19.2268,1.650880569401546
19.2266,1.650880569401546
19.2264,1.650880569401546
19.2262,1.650880569401546
19.226,1.650880569401546
19.2258,1.650880569401546
19.2256,1.654558881124963
19.2254,1.654558881124963
19.2252,1.654558881124963
19.225,1.654558881124963
19.2248,1.654558881124963
19.2246,1.65823719284838
19.2244,1.65823719284838
19.2242,1.65823719284838
19.224,1.65823719284838
19.2238,1.661915504571797
19.2236,1.661915504571797
19.2234,1.661915504571797
19.2232,1.661915504571797
19.223,1.661915504571797
19.2228,1.661915504571797
19.2226,1.661915504571797
19.2224,1.661915504571797
19.2222,1.661915504571797
19.222,1.661915504571797
19.2218,1.661915504571797
19.2216,1.661915504571797
19.2214,1.661915504571797
19.2212,1.661915504571797
19.221,1.661915504571797
19.2208,1.661915504571797
19.2206,1.661915504571797
19.2204,1.65823719284838
19.2202,1.65823719284838
19.22,1.65823719284838
19.2198,1.654558881124963
19.2196,1.654558881124963
19.2194,1.650880569401546
19.2192,1.650880569401546
19.219,1.650880569401546
19.2188,1.647202257678129
19.2186,1.647202257678129
19.2184,1.647202257678129
19.2182,1.647202257678129
19.218,1.643523945954712
19.2178,1.643523945954712
19.2176,1.643523945954712
19.2174,1.643523945954712
19.2172,1.643523945954712
19.217,1.643523945954712
19.2168,1.643523945954712
19.2166,1.643523945954712
19.2164,1.643523945954712
19.2162,1.643523945954712
19.216,1.643523945954712
19.2158,1.643523945954712
19.2156,1.643523945954712
19.2154,1.647202257678129
19.2152,1.643523945954712
19.215,1.647202257678129
19.2148,1.647202257678129
19.2146,1.647202257678129
19.2144,1.647202257678129
19.2142,1.647202257678129
19.214,1.647202257678129
19.2138,1.647202257678129
19.2136,1.650880569401546
19.2134,1.650880569401546
19.2132,1.647202257678129
19.213,1.647202257678129
19.2128,1.647202257678129
19.2126,1.650880569401546
19.2124,1.647202257678129
19.2122,1.647202257678129
19.212,1.647202257678129
19.2118,1.647202257678129
19.2116,1.643523945954712
19.2114,1.643523945954712
19.2112,1.643523945954712
19.211,1.643523945954712
19.2108,1.639845634231295
19.2106,1.639845634231295
19.2104,1.639845634231295
19.2102,1.639845634231295
19.21,1.639845634231295
19.2098,1.639845634231295
19.2096,1.639845634231295
19.2094,1.639845634231295
19.2092,1.639845634231295
19.209,1.639845634231295
19.2088,1.639845634231295
19.2086,1.643523945954712
19.2084,1.643523945954712
19.2082,1.643523945954712
19.208,1.647202257678129
19.2078,1.647202257678129
19.2076,1.647202257678129
19.2074,1.650880569401546
19.2072,1.650880569401546
19.207,1.654558881124963
19.2068,1.654558881124963
19.2066,1.654558881124963
19.2064,1.654558881124963
19.2062,1.65823719284838
19.206,1.65823719284838
19.2058,1.65823719284838
19.2056,1.661915504571797
19.2054,1.661915504571797
19.2052,1.661915504571797
19.205,1.661915504571797
19.2048,1.661915504571797
19.2046,1.661915504571797
19.2044,1.661915504571797
19.2042,1.661915504571797
19.204,1.661915504571797
19.2038,1.661915504571797
19.2036,1.65823719284838
19.2034,1.65823719284838
19.2032,1.65823719284838
19.203,1.65823719284838
19.2028,1.65823719284838
19.2026,1.654558881124963
19.2024,1.654558881124963
19.2022,1.654558881124963
19.202,1.654558881124963
19.2018,1.650880569401546
19.2016,1.650880569401546
19.2014,1.650880569401546
19.2012,1.650880569401546
19.201,1.647202257678129
19.2008,1.647202257678129
19.2006,1.647202257678129
19.2004,1.647202257678129
19.2002,1.643523945954712
19.2,1.643523945954712
19.1998,1.647202257678129
19.1996,1.643523945954712
19.1994,1.639845634231295
19.1992,1.639845634231295
19.199,1.639845634231295
19.1988,1.639845634231295
19.1986,1.639845634231295
19.1984,1.639845634231295
19.1982,1.639845634231295
19.198,1.643523945954712
19.1978,1.643523945954712
19.1976,1.639845634231295
19.1974,1.643523945954712
19.1972,1.643523945954712
19.197,1.643523945954712
19.1968,1.643523945954712
19.1966,1.643523945954712
19.1964,1.643523945954712
19.1962,1.643523945954712
19.196,1.643523945954712
19.1958,1.643523945954712
19.1956,1.647202257678129
19.1954,1.647202257678129
19.1952,1.647202257678129
19.195,1.647202257678129
19.1948,1.650880569401546
19.1946,1.650880569401546
19.1944,1.650880569401546
19.1942,1.650880569401546
19.194,1.650880569401546
19.1938,1.650880569401546
19.1936,1.654558881124963
19.1934,1.654558881124963
19.1932,1.654558881124963
19.193,1.654558881124963
19.1928,1.654558881124963
19.1926,1.65823719284838
19.1924,1.65823719284838
19.1922,1.65823719284838
19.192,1.65823719284838
19.1918,1.65823719284838
19.1916,1.65823719284838
19.1914,1.661915504571797
19.1912,1.661915504571797
19.191,1.661915504571797
19.1908,1.661915504571797
19.1906,1.661915504571797
19.1904,1.661915504571797
19.1902,1.661915504571797
19.19,1.661915504571797
19.1898,1.661915504571797
19.1896,1.665593816295214
19.1894,1.665593816295214
19.1892,1.665593816295214
19.189,1.665593816295214
19.1888,1.665593816295214
19.1886,1.665593816295214
19.1884,1.669272128018631
19.1882,1.669272128018631
19.188,1.669272128018631
19.1878,1.669272128018631
19.1876,1.669272128018631
19.1874,1.672950439742048
19.1872,1.672950439742048
19.187,1.672950439742048
19.1868,1.672950439742048
19.1866,1.676628751465466
19.1864,1.676628751465466
19.1862,1.676628751465466
19.186,1.676628751465466
19.1858,1.676628751465466
19.1856,1.676628751465466
19.1854,1.680307063188883
19.1852,1.676628751465466
19.185,1.676628751465466
19.1848,1.676628751465466
19.1846,1.676628751465466
19.1844,1.676628751465466
19.1842,1.676628751465466
19.184,1.672950439742048
19.1838,1.672950439742048
19.1836,1.669272128018631
19.1834,1.669272128018631
19.1832,1.665593816295214
19.183,1.665593816295214
19.1828,1.665593816295214
19.1826,1.661915504571797
19.1824,1.661915504571797
19.1822,1.65823719284838
19.182,1.65823719284838
19.1818,1.654558881124963
19.1816,1.654558881124963
19.1814,1.654558881124963
19.1812,1.654558881124963
19.181,1.650880569401546
19.1808,1.650880569401546
19.1806,1.647202257678129
19.1804,1.647202257678129
19.1802,1.647202257678129
19.18,1.647202257678129
19.1798,1.647202257678129
19.1796,1.647202257678129
19.1794,1.647202257678129
19.1792,1.643523945954712
19.179,1.643523945954712
19.1788,1.643523945954712
19.1786,1.643523945954712
19.1784,1.643523945954712
19.1782,1.643523945954712
19.178,1.639845634231295
19.1778,1.639845634231295
19.1776,1.639845634231295
19.1774,1.639845634231295
19.1772,1.639845634231295
19.177,1.639845634231295
19.1768,1.639845634231295
19.1766,1.643523945954712
19.1764,1.643523945954712
19.1762,1.643523945954712
19.176,1.643523945954712
19.1758,1.643523945954712
19.1756,1.643523945954712
19.1754,1.643523945954712
19.1752,1.647202257678129
19.175,1.643523945954712
19.1748,1.647202257678129
19.1746,1.647202257678129
19.1744,1.647202257678129
19.1742,1.647202257678129
19.174,1.643523945954712
19.1738,1.643523945954712
19.1736,1.643523945954712
19.1734,1.643523945954712
19.1732,1.643523945954712
19.173,1.643523945954712
19.1728,1.643523945954712
19.1726,1.639845634231295
19.1724,1.639845634231295
19.1722,1.639845634231295
19.172,1.643523945954712
19.1718,1.643523945954712
19.1716,1.643523945954712
19.1714,1.643523945954712
19.1712,1.643523945954712
19.171,1.643523945954712
19.1708,1.643523945954712
19.1706,1.647202257678129
19.1704,1.647202257678129
19.1702,1.647202257678129
19.17,1.647202257678129
19.1698,1.647202257678129
19.1696,1.647202257678129
19.1694,1.647202257678129
19.1692,1.647202257678129
19.169,1.650880569401546
19.1688,1.650880569401546
19.1686,1.650880569401546
19.1684,1.650880569401546
19.1682,1.650880569401546
19.168,1.650880569401546
19.1678,1.650880569401546
19.1676,1.650880569401546
19.1674,1.650880569401546
19.1672,1.650880569401546
19.167,1.650880569401546
19.1668,1.650880569401546
19.1666,1.650880569401546
19.1664,1.650880569401546
19.1662,1.650880569401546
19.166,1.650880569401546
19.1658,1.650880569401546
19.1656,1.650880569401546
19.1654,1.650880569401546
19.1652,1.650880569401546
19.165,1.650880569401546
19.1648,1.650880569401546
19.1646,1.650880569401546
19.1644,1.650880569401546
19.1642,1.650880569401546
19.164,1.647202257678129
19.1638,1.647202257678129
19.1636,1.647202257678129
19.1634,1.647202257678129
19.1632,1.647202257678129
19.163,1.647202257678129
19.1628,1.647202257678129
19.1626,1.647202257678129
19.1624,1.647202257678129
19.1622,1.647202257678129
19.162,1.647202257678129
19.1618,1.647202257678129
19.1616,1.647202257678129
19.1614,1.647202257678129
19.1612,1.647202257678129
19.161,1.647202257678129
19.1608,1.647202257678129
19.1606,1.647202257678129
19.1604,1.647202257678129
19.1602,1.643523945954712
19.16,1.643523945954712
19.1598,1.643523945954712
19.1596,1.643523945954712
19.1594,1.643523945954712
19.1592,1.643523945954712
19.159,1.643523945954712
19.1588,1.643523945954712
19.1586,1.643523945954712
19.1584,1.643523945954712
19.1582,1.643523945954712
19.158,1.643523945954712
19.1578,1.643523945954712
19.1576,1.639845634231295
19.1574,1.639845634231295
19.1572,1.639845634231295
19.157,1.639845634231295
19.1568,1.639845634231295
19.1566,1.639845634231295
19.1564,1.639845634231295
19.1562,1.639845634231295
19.156,1.639845634231295
19.1558,1.639845634231295
19.1556,1.639845634231295
19.1554,1.639845634231295
19.1552,1.639845634231295
19.155,1.639845634231295
19.1548,1.639845634231295
19.1546,1.639845634231295
19.1544,1.643523945954712
19.1542,1.643523945954712
19.154,1.643523945954712
19.1538,1.643523945954712
19.1536,1.643523945954712
19.1534,1.643523945954712
19.1532,1.647202257678129
19.153,1.647202257678129
19.1528,1.647202257678129
19.1526,1.647202257678129
19.1524,1.647202257678129
19.1522,1.650880569401546
19.152,1.650880569401546
19.1518,1.650880569401546
19.1516,1.654558881124963
19.1514,1.654558881124963
19.1512,1.654558881124963
19.151,1.65823719284838
19.1508,1.65823719284838
19.1506,1.661915504571797
19.1504,1.661915504571797
19.1502,1.665593816295214
19.15,1.665593816295214
19.1498,1.665593816295214
19.1496,1.665593816295214
19.1494,1.669272128018631
19.1492,1.669272128018631
19.149,1.669272128018631
19.1488,1.669272128018631
19.1486,1.669272128018631
19.1484,1.669272128018631
19.1482,1.669272128018631
19.148,1.669272128018631
19.1478,1.669272128018631
19.1476,1.669272128018631
19.1474,1.669272128018631
19.1472,1.669272128018631
19.147,1.669272128018631
19.1468,1.669272128018631
19.1466,1.665593816295214
19.1464,1.665593816295214
19.1462,1.665593816295214
19.146,1.665593816295214
19.1458,1.661915504571797
19.1456,1.661915504571797
19.1454,1.661915504571797
19.1452,1.661915504571797
19.145,1.661915504571797
19.1448,1.65823719284838
19.1446,1.65823719284838
19.1444,1.65823719284838
19.1442,1.65823719284838
19.144,1.654558881124963
19.1438,1.654558881124963
19.1436,1.654558881124963
19.1434,1.654558881124963
19.1432,1.650880569401546
19.143,1.650880569401546
19.1428,1.650880569401546
19.1426,1.650880569401546
19.1424,1.647202257678129
19.1422,1.643523945954712
19.142,1.643523945954712
19.1418,1.639845634231295
19.1416,1.639845634231295
19.1414,1.636167322507877
19.1412,1.636167322507877
19.141,1.63248901078446
19.1408,1.63248901078446
19.1406,1.628810699061043
19.1404,1.625132387337626
19.1402,1.621454075614209
19.14,1.621454075614209
19.1398,1.617775763890792
19.1396,1.617775763890792
19.1394,1.617775763890792
19.1392,1.617775763890792
19.139,1.614097452167375
19.1388,1.614097452167375
19.1386,1.610419140443958
19.1384,1.610419140443958
19.1382,1.610419140443958
19.138,1.614097452167375
19.1378,1.614097452167375
19.1376,1.614097452167375
19.1374,1.614097452167375
19.1372,1.614097452167375
19.137,1.614097452167375
19.1368,1.614097452167375
19.1366,1.617775763890792
19.1364,1.617775763890792
19.1362,1.617775763890792
19.136,1.617775763890792
19.1358,1.617775763890792
19.1356,1.621454075614209
19.1354,1.621454075614209
19.1352,1.625132387337626
19.135,1.625132387337626
19.1348,1.625132387337626
19.1346,1.625132387337626
19.1344,1.625132387337626
19.1342,1.628810699061043
19.134,1.628810699061043
19.1338,1.628810699061043
19.1336,1.63248901078446
19.1334,1.628810699061043
19.1332,1.628810699061043
19.133,1.63248901078446
19.1328,1.63248901078446
19.1326,1.63248901078446
19.1324,1.63248901078446
19.1322,1.636167322507877
19.132,1.636167322507877
19.1318,1.639845634231295
19.1316,1.639845634231295
19.1314,1.643523945954712
19.1312,1.647202257678129
19.131,1.647202257678129
19.1308,1.650880569401546
19.1306,1.650880569401546
19.1304,1.654558881124963
19.1302,1.65823719284838
19.13,1.65823719284838
19.1298,1.661915504571797
19.1296,1.661915504571797
19.1294,1.661915504571797
19.1292,1.665593816295214
19.129,1.665593816295214
19.1288,1.665593816295214
19.1286,1.669272128018631
19.1284,1.672950439742048
19.1282,1.672950439742048
19.128,1.676628751465466
19.1278,1.676628751465466
19.1276,1.676628751465466
19.1274,1.680307063188883
19.1272,1.680307063188883
19.127,1.680307063188883
19.1268,1.680307063188883
19.1266,1.680307063188883
19.1264,1.680307063188883
19.1262,1.680307063188883
19.126,1.680307063188883
19.1258,1.680307063188883
19.1256,1.680307063188883
19.1254,1.680307063188883
19.1252,1.680307063188883
19.125,1.680307063188883
19.1248,1.680307063188883
19.1246,1.680307063188883
19.1244,1.676628751465466
19.1242,1.676628751465466
19.124,1.676628751465466
19.1238,1.676628751465466
19.1236,1.676628751465466
19.1234,1.672950439742048
19.1232,1.672950439742048
19.123,1.672950439742048
19.1228,1.669272128018631
19.1226,1.669272128018631
19.1224,1.669272128018631
19.1222,1.665593816295214
19.122,1.661915504571797
19.1218,1.661915504571797
19.1216,1.661915504571797
19.1214,1.65823719284838
19.1212,1.65823719284838
19.121,1.654558881124963
19.1208,1.654558881124963
19.1206,1.650880569401546
19.1204,1.650880569401546
19.1202,1.650880569401546
19.12,1.647202257678129
19.1198,1.643523945954712
19.1196,1.643523945954712
19.1194,1.639845634231295
19.1192,1.639845634231295
19.119,1.636167322507877
19.1188,1.636167322507877
19.1186,1.63248901078446
19.1184,1.628810699061043
19.1182,1.628810699061043
19.118,1.625132387337626
19.1178,1.625132387337626
19.1176,1.621454075614209
19.1174,1.621454075614209
19.1172,1.621454075614209
19.117,1.621454075614209
19.1168,1.621454075614209
19.1166,1.621454075614209
19.1164,1.621454075614209
19.1162,1.625132387337626
19.116,1.625132387337626
19.1158,1.628810699061043
19.1156,1.628810699061043
19.1154,1.63248901078446
19.1152,1.63248901078446
19.115,1.636167322507877
19.1148,1.636167322507877
19.1146,1.639845634231295
19.1144,1.639845634231295
19.1142,1.643523945954712
19.114,1.643523945954712
19.1138,1.643523945954712
19.1136,1.643523945954712
19.1134,1.643523945954712
19.1132,1.643523945954712
19.113,1.643523945954712
19.1128,1.643523945954712
19.1126,1.643523945954712
19.1124,1.647202257678129
19.1122,1.647202257678129
19.112,1.647202257678129
19.1118,1.647202257678129
19.1116,1.647202257678129
19.1114,1.650880569401546
19.1112,1.650880569401546
19.111,1.650880569401546
19.1108,1.650880569401546
19.1106,1.650880569401546
19.1104,1.650880569401546
19.1102,1.650880569401546
19.11,1.650880569401546
19.1098,1.650880569401546
19.1096,1.650880569401546
19.1094,1.650880569401546
19.1092,1.650880569401546
19.109,1.650880569401546
19.1088,1.650880569401546
19.1086,1.650880569401546
19.1084,1.650880569401546
19.1082,1.647202257678129
19.108,1.647202257678129
19.1078,1.650880569401546
19.1076,1.650880569401546
19.1074,1.650880569401546
19.1072,1.647202257678129
19.107,1.650880569401546
19.1068,1.650880569401546
19.1066,1.650880569401546
19.1064,1.650880569401546
19.1062,1.650880569401546
19.106,1.650880569401546
19.1058,1.650880569401546
19.1056,1.650880569401546
19.1054,1.650880569401546
19.1052,1.650880569401546
19.105,1.650880569401546
19.1048,1.650880569401546
19.1046,1.650880569401546
19.1044,1.650880569401546
19.1042,1.650880569401546
19.104,1.647202257678129
19.1038,1.647202257678129
19.1036,1.647202257678129
19.1034,1.650880569401546
19.1032,1.650880569401546
19.103,1.650880569401546
19.1028,1.650880569401546
19.1026,1.650880569401546
19.1024,1.647202257678129
19.1022,1.647202257678129
19.102,1.647202257678129
19.1018,1.647202257678129
19.1016,1.647202257678129
19.1014,1.643523945954712
19.1012,1.647202257678129
19.101,1.643523945954712
19.1008,1.643523945954712
